ecg_actividad1,ecg_actividad2
-0.10515348602863164,0.0684899144435715
-0.10465541054067154,0.09705136794652086
-0.10342257171351316,0.15370397514452602
-0.1014432986481883,0.22264123636477426
-0.09877060947306393,0.28367442050834396
-0.09553475362475752,0.3256858289910976
-0.09196090158993385,0.3452883970106661
-0.08840634937503226,0.34933742205706525
-0.08526055834978748,0.34927888991867423
-0.08280528043926422,0.34028810802289944
-0.08121924593929578,0.3148581155105807
-0.08050608262510313,0.2729076741466131
-0.08054076781309279,0.21196406692402453
-0.08125682866280381,0.1373268833383816
-0.08248887505892476,0.05852965186500378
-0.08386911025263268,-0.023412893025680014
-0.08501983434696232,-0.10672547039858425
-0.08560086656337826,-0.18695657414963252
-0.08537785030717633,-0.26235874277044685
-0.08444802868901764,-0.3300068115665461
-0.08306312735138197,-0.3874348628410487
-0.08136964859298233,-0.4368603826641355
-0.07966300050448573,-0.4802638194405836
-0.07846466889757989,-0.5156950814078605
-0.07822817274685333,-0.5410823406340071
-0.07923436077529679,-0.5549629559860678
-0.08143948827305462,-0.557611485532657
-0.08410997884872952,-0.5571760588016114
-0.08638170756857683,-0.5612768979221207
-0.0880864370778111,-0.5655659028676152
-0.08938528769316247,-0.5646253401030488
-0.09085306023059311,-0.5578725633938209
-0.09237110623946611,-0.542028465253149
-0.09072821949363823,-0.514429999230864
-0.08384318673150415,-0.47751288782067347
-0.0758879404942858,-0.4383659710735765
-0.07043713900279376,-0.40454944561428163
-0.06497017936716366,-0.3771974906236059
-0.05810840139141574,-0.35462497427999706
-0.05243445046626264,-0.33381063813052647
-0.04902432049681856,-0.30995453073821344
-0.04726563084937759,-0.28408902071120007
-0.04732774967412652,-0.260089908845806
-0.049192513515756375,-0.2408509163950375
-0.05218266292631239,-0.23002901124388012
-0.05573480331597078,-0.22644634078588036
-0.05943893099747718,-0.2251737324484119
-0.06320843227288682,-0.22082614080771823
-0.06700338291533152,-0.20732626288051076
-0.07017023806869235,-0.1834658949717479
-0.07200188068923516,-0.15242280547732903
-0.07205134076439179,-0.12012889418049179
-0.06993329840901956,-0.09298092810020435
-0.06582500184046174,-0.0689074616331596
-0.06046164503046936,-0.04459956795456541
-0.05491837442211342,-0.02404761700422176
-0.05044051379736749,-0.008934977037551443
-0.047761897295852826,0.0031483574519826775
-0.04706206922482684,0.011625907026378954
-0.04785033498115238,0.01264410782955642
-0.049273779589741634,0.004307229675767614
-0.05118376217675758,-0.009705669342071314
-0.05353023646809045,-0.024104715572987438
-0.05597548805514617,-0.033800066961262344
-0.058348375039448966,-0.03282629708039665
-0.06007876843152068,-0.018450181219600206
-0.06063512982953031,0.007790974237266457
-0.06038720355754059,0.04005853120641877
-0.05979990745093704,0.07134737198997017
-0.059006115613399746,0.10111806798226662
-0.058232940435230786,0.1301106995840962
-0.05747687290398103,0.1560269479855726
-0.05659785488474808,0.17837993002790645
-0.05589873915005858,0.1959738969450526
-0.055613251541608164,0.20552021371083995
-0.05554010280778921,0.20377342663236256
-0.05552027631548817,0.18862276495107794
-0.05548074765880017,0.1625839964965621
-0.05534203278203625,0.1313614516139316
-0.05530620251961761,0.10199545610559571
-0.055625019222487776,0.08240909447287866
-0.05620577900200096,0.07651840967030922
-0.05691095613656035,0.08387817215273789
-0.05764745861584085,0.0995309764089417
-0.05818009414077445,0.11613653158701666
-0.05828697288722443,0.13143775459633508
-0.057662201770794376,0.14495959653402157
-0.05568901493992897,0.15610808171661553
-0.051929823880994846,0.16581022040767723
-0.0466485908026935,0.17066399294780543
-0.040772507481804825,0.16676168908045505
-0.03621211917701592,0.15530445984248215
-0.0347114796907115,0.13763537343122517
-0.035785869279856115,0.11517332363723934
-0.038148652182835176,0.09116773379702943
-0.04077767734056731,0.06783998427694836
-0.041974237155182365,0.048730977551676054
-0.04049362168757283,0.042164899051673116
-0.03659069617015831,0.05322593723337268
-0.03256061972527807,0.07549170543463145
-0.030985080810113093,0.10025208840167277
-0.03165259338127847,0.12332782274495825
-0.033614232453259424,0.1410098929681268
-0.03622052479015106,0.15570112958997764
-0.03809159916915586,0.17112328455468268
-0.03931462837340215,0.17891953112969677
-0.0407707081833728,0.17304808343619538
-0.042554097547061395,0.16160015901327016
-0.04499880325498956,0.15076337913007853
-0.0478696503138291,0.13899999743071592
-0.050391584839661156,0.12545965108777513
-0.052377425504481594,0.10659414738101106
-0.05364673363904942,0.08128990806534757
-0.054177762385146704,0.06619007970135396
-0.054407524342810376,0.07567958720800098
-0.05481125489145888,0.09913624850973875
-0.05581100281900225,0.12493058136297366
-0.05741732587289924,0.15236348869055683
-0.05911929578643143,0.17763439056506397
-0.05987811826166426,0.20256177830109853
-0.05855777755151466,0.23141011870094405
-0.054926462438491086,0.25286686844960526
-0.049365749681431044,0.2584572921159258
-0.04281968593682374,0.25864751004368697
-0.0366539203546021,0.2617594915321532
-0.031418221908766045,0.2652312600525527
-0.02743582112953136,0.26867879976212716
-0.02532970866620106,0.27176989113784095
-0.02529011910495627,0.27112036422632324
-0.027393090805537066,0.26836529685058114
-0.031173471725306906,0.2668620047649966
-0.034583693372009575,0.26755344437525397
-0.03552924114169837,0.2720114488535554
-0.03351093150048225,0.27979038667043843
-0.0291579117223279,0.28854537992903206
-0.025034484898634426,0.29696510672974247
-0.024266824529663812,0.3034224227925965
-0.027101968522599468,0.3068397323000747
-0.03235483187591861,0.3076556046601297
-0.03775432667797245,0.30716578285292584
-0.04020475227102673,0.30678821360432856
-0.03964592841617525,0.30611686800288246
-0.037494734087494264,0.30344027788540423
-0.03516036794504754,0.29609665176570366
-0.03483367626707122,0.28155353504697667
-0.03656314700189829,0.2611411632252717
-0.03919793567074729,0.23907019091332307
-0.04224010024835047,0.22189533733605182
-0.04468427061526868,0.21609472497449642
-0.04653068191416593,0.22088864261706986
-0.04847848148602823,0.23170184254692677
-0.05034480731734182,0.24326859653525554
-0.05208668451757175,0.25124073363146615
-0.053485614571544965,0.2624910846854272
-0.05399760118590791,0.28380896128607674
-0.05374551607294775,0.3060021309297207
-0.05295372642053397,0.3226232708098076
-0.05165670813960177,0.341197799696169
-0.05009550231336653,0.3634102755590226
-0.04842308672773238,0.3775415453409075
-0.04670423005524781,0.37592239574103464
-0.04512610102096327,0.36273734648114103
-0.04374526700294171,0.3434377656734747
-0.04235663482259484,0.32451947398528014
-0.040774246708386766,0.3154568637655979
-0.03903913966726528,0.3192703350349728
-0.03733249957945171,0.3330411155671141
-0.036075279436464124,0.3491684891137798
-0.035414276720059576,0.3576633916723005
-0.03426845790083151,0.35709550110942084
-0.03187097472368627,0.35015729426827746
-0.029554507123066797,0.3403730177943985
-0.028351675427843878,0.3336936804839399
-0.027192767526924486,0.3288841766471061
-0.0254238716817427,0.3217570021610395
-0.023796704526703343,0.31149562213108395
-0.022572997173660014,0.2962223942701646
-0.021377635738007827,0.2773804170431939
-0.0201942603114807,0.2592366617549802
-0.019176271023488244,0.24373188628983183
-0.01830521480992983,0.2330843587540986
-0.017542131774449438,0.22853176958817312
-0.016924838519859032,0.22895080671448967
-0.016555034783345222,0.23264889728975163
-0.01653111976763241,0.23727204579126193
-0.016887478498958882,0.2411811208061659
-0.01763830399879884,0.24327462855886917
-0.01876955683351355,0.24208957990548458
-0.020226742132241828,0.23681658641235712
-0.02197606435499447,0.2268657206467799
-0.023959622464321408,0.21274956715924143
-0.02604626646396141,0.19795850119578853
-0.02810046024028016,0.18625632466060452
-0.030011050324745464,0.17883953355334486
-0.03169009976094334,0.1752538060423093
-0.033128546240226354,0.17204939189012786
-0.03435345288771127,0.16482308288894834
-0.035346001937275204,0.15375718199518926
-0.03610820996268697,0.14108426530995696
-0.036686200977879294,0.13023996529197102
-0.037118984249455624,0.12485655032524612
-0.03745830557462512,0.12166651199893282
-0.03773391468286218,0.11601695953428312
-0.03787886345387412,0.10843228244096659
-0.03780459586490667,0.09805625212155006
-0.03747686603484129,0.08223228180840621
-0.03685442060487194,0.062021911430855114
-0.03589487391683209,0.04295781033155674
-0.03457528937800413,0.030053542011256595
-0.0328368833292307,0.022870562651251942
-0.03063950491640334,0.01891519299859196
-0.028028920124303785,0.01442758793386958
-0.02509801707845249,0.00431678673949598
-0.02199729966468607,-0.011617223791286407
-0.018979971604019232,-0.030227629198916122
-0.01640417521252089,-0.04679030406048231
-0.014633146360043007,-0.05664552336828329
-0.013899151972948583,-0.06357928437424497
-0.014283579320726405,-0.07263970868769616
-0.01563125725034242,-0.08123221991379691
-0.01764110937624943,-0.08874837593433599
-0.020110953784552688,-0.09902936078838187
-0.022765464685756638,-0.11203541435071275
-0.025167290369828538,-0.12231581962985494
-0.02692721941116821,-0.12592456182489575
-0.027718029402606256,-0.1253139143079973
-0.027401760571604452,-0.12473428150536484
-0.02632036086515426,-0.1292314301145045
-0.025083641523394977,-0.14157710896734582
-0.024312847726166327,-0.15102398922786492
-0.02493001374260967,-0.14756093215699248
-0.028224195447036516,-0.1403932638464084
-0.035038941575673686,-0.1381557921797446
-0.04494800326450557,-0.13788903698347085
-0.05593556185292349,-0.13922970168074258
-0.06354976673939795,-0.14114761302053666
-0.06318809314089803,-0.13967522982845945
-0.05391694443401454,-0.1380136546407537
-0.03762257281199162,-0.13991583776928448
-0.01983841392224582,-0.1427302942473126
-0.007518935419602692,-0.14502957652875412
-0.0022623084583941713,-0.14767547804410372
-0.003009938096194785,-0.1502236776027194
-0.0071080864650503416,-0.15310909876158332
-0.010005555961545249,-0.15742112691005586
-0.011812686017619466,-0.16260784157149807
-0.014165381682443336,-0.1678775863436474
-0.016586332989781846,-0.17277662112065406
-0.01962146118336362,-0.17646521258259204
-0.02210143418526575,-0.1785848868898166
-0.022144055522867714,-0.1792099951811708
-0.021191836238906577,-0.1783652100330565
-0.020765993733297683,-0.17627479000956423
-0.021158734313121978,-0.17298788246667066
-0.02292970503931618,-0.16845643981278707
-0.025179048543799765,-0.1628674341433212
-0.026445638667044784,-0.1565125498627478
-0.027099077866520615,-0.1500515652008286
-0.02761696365163634,-0.144441616536283
-0.027992348321399765,-0.14065681087080512
-0.028629034451159687,-0.1400606583268652
-0.02923731019355102,-0.14460773536020186
-0.02923454643706857,-0.1541407303354167
-0.02877105749196147,-0.16291541253576708
-0.027936856734003424,-0.16531419904441905
-0.02671285641623209,-0.1624236543427672
-0.025334833941009226,-0.15651175585659033
-0.023920175527944752,-0.1491732118854743
-0.022547673541637128,-0.14398673367724013
-0.02142527940101581,-0.14236545181321397
-0.020683551790855195,-0.14352834391035182
-0.02034141246348062,-0.14612997347115583
-0.020411898218319752,-0.14792369186530344
-0.020925976240459013,-0.1487792291493955
-0.021863308748737032,-0.1487617288149037
-0.023130404859971244,-0.14541152928863801
-0.024553587850099694,-0.13949263708838272
-0.025795993049231296,-0.1392390971994646
-0.026373035617228154,-0.14906184842804943
-0.025684011170151004,-0.15780696054731363
-0.023265848223276587,-0.15643207065173642
-0.01922788148193135,-0.15386328337885322
-0.014331007389614608,-0.15636743947720788
-0.010216233136743025,-0.1572727598894917
-0.008590884951856975,-0.15408926466944275
-0.009729612385936651,-0.15054409799366203
-0.012775138246403667,-0.14737947427512513
-0.015459401751875664,-0.14445059249381487
-0.01505448771037257,-0.14304753883918106
-0.01114185366041938,-0.14323497582146902
-0.004602238275976349,-0.143284911378232
0.002720920981724718,-0.1394483372140317
0.008245781722316431,-0.13045061741280528
0.011795295719018078,-0.12465558644335631
0.014295423568913385,-0.12865987465010945
0.016511616128024268,-0.13437992790371853
0.019816171178703976,-0.1351088771402137
0.02393358674773323,-0.1362077572017452
0.02774869308470473,-0.13984031519794454
0.03096581243401679,-0.14131389220247462
0.03301603843270487,-0.13874835928913135
0.03399494245541975,-0.1320121920745987
0.034631309990058694,-0.12094872845190285
0.035077963852584305,-0.10981544303447223
0.03556881490917409,-0.10356861655855853
0.03625010338330141,-0.10196551903810992
0.03690655007567398,-0.1030999039752262
0.037477599410080865,-0.10373572999664779
0.037871398822863334,-0.09932294460586166
0.03797809434538164,-0.08987170872099923
0.03776107380242694,-0.07823302033301852
0.03703947726762967,-0.06855268492736015
0.035616125839278825,-0.06616467840741598
0.033342428927414895,-0.07177910559389249
0.03011790592172496,-0.08345029427517474
0.026070483210727517,-0.09889649281720213
0.02142260653809464,-0.11441985706229073
0.016305182153799242,-0.12953197012947232
0.010904629942698977,-0.1453758092719396
0.005458345875306867,-0.1617933380102561
0.00017674211952166952,-0.17922067291884228
-0.004674339641716668,-0.19627901194728467
-0.008893912972326001,-0.2104201997776163
-0.012513044629028906,-0.2206697171036232
-0.01562918363045027,-0.22605633465778036
-0.01828019854817201,-0.22625153449706553
-0.02056983532052567,-0.22215284499457782
-0.022644321157765903,-0.21461455316091457
-0.024633540376196132,-0.20461810073894837
-0.026718308456499015,-0.19271508103955676
-0.02900683030501813,-0.17884757612727728
-0.03137408839779889,-0.16279387542517182
-0.033660093972249804,-0.144814575969462
-0.035853326131144926,-0.127329610258638
-0.03796714825734112,-0.11329216196267508
-0.04008282209338679,-0.10412930360243677
-0.042351498995063686,-0.10130338598618507
-0.04479598572695194,-0.10608994997772243
-0.04747439453225059,-0.11706545195650139
-0.05063834484604415,-0.12869467282740196
-0.05446511606615665,-0.13537901222215964
-0.058907969714208024,-0.136481154883756
-0.06371099235367868,-0.13401494247307472
-0.06821659169702542,-0.13295683473033995
-0.07148237563873414,-0.13947306330512277
-0.07257218745753004,-0.15294457328825417
-0.07029301092633009,-0.16851281244373717
-0.06306538353735561,-0.17838186309268
-0.05141404846156317,-0.17537588933129655
-0.041125067670859904,-0.16587566726002
-0.036378537029232084,-0.15846173231832825
-0.03136298778028784,-0.15080979727878968
-0.021552571531654904,-0.14357483712643285
-0.013353316552255126,-0.142986606505936
-0.011049828662142842,-0.1494539092639455
-0.0108639718908935,-0.1564458529691858
-0.011189839936736503,-0.15848496180123686
-0.013645816681945595,-0.15658765684756196
-0.017798429452427173,-0.15317540340560495
-0.02265767187304511,-0.15113622493589404
-0.028113889902098992,-0.15476879917118305
-0.03352728338206989,-0.1630657282495826
-0.03820327579315908,-0.17201020652873
-0.04218601249032474,-0.17793048989395807
-0.04557733298597503,-0.1762798270322759
-0.04826629733623029,-0.166664043001117
-0.05028902773209039,-0.15224741988762158
-0.0516664594623083,-0.13750455229355277
-0.052374293538786906,-0.12798943268297178
-0.05264044826717541,-0.12485953652571312
-0.05259857800861032,-0.12617507415225332
-0.05193983643077439,-0.12876102508453613
-0.05043250801813016,-0.12802247257588137
-0.04830294165801611,-0.12353675758591125
-0.04603454777097534,-0.11690684026504816
-0.04457213633571133,-0.10885630027912672
-0.044875539945135795,-0.10226271834551912
-0.04689512256922175,-0.10023458238220895
-0.049897350079929265,-0.10339552156981052
-0.05246678341246406,-0.10822317579020899
-0.05295412871868852,-0.1111970622820323
-0.051098749596045705,-0.11529661561889494
-0.047610515958639174,-0.12227559674497482
-0.04404889123238326,-0.12647618390287277
-0.04236588274727245,-0.12564593692884707
-0.042668195090056184,-0.12699539602243098
-0.04399700128683642,-0.1345355250536505
-0.04485405828242509,-0.14055767178028727
-0.043284112841405306,-0.13994556947065537
-0.039307366844813854,-0.13934193393982586
-0.0340644429190591,-0.1422727393772218
-0.02884751443435624,-0.14242216941877328
-0.025465718607857405,-0.13751294405456715
-0.024194461015531393,-0.13451644177692815
-0.02439102254381336,-0.1371270665865418
-0.025624771371437018,-0.13991263021316844
-0.027020005510991423,-0.13952877915261694
-0.028533430470814452,-0.1399130033329002
-0.030565541746513082,-0.14228075237371865
-0.032818999736640306,-0.14173875176884188
-0.035130046791020886,-0.13654644888061743
-0.03716454604267441,-0.1320651059097068
-0.03843074173041159,-0.1313670323179269
-0.039178116731408204,-0.1292562270440597
-0.039805507250647,-0.12243722718567997
-0.04049451647474159,-0.11555494795329954
-0.041638014809608284,-0.11083585348585422
-0.04360524163682801,-0.1036352567527048
-0.046613039487570465,-0.09129684513878318
-0.05087847200559622,-0.07594662761690979
-0.05627915814871744,-0.05940808988211809
-0.06202274769180534,-0.04376762932029004
-0.0671375638081381,-0.031331685820831
-0.07097770327869574,-0.019692682676147915
-0.07294249511047812,-0.00405421395378725
-0.07258038607346853,0.019941045008739895
-0.06979618108470721,0.05290577137821257
-0.06458772995001277,0.08213345138467387
-0.057569714620378784,0.09708156282951254
-0.05060893000011833,0.11068445150334984
-0.04547127653857187,0.13397407492473593
-0.04233939744093478,0.1569792513859865
-0.04002786761669639,0.1730400836699304
-0.035168751748838316,0.1840562604208685
-0.023886539281570533,0.1874524032963139
-0.0055008558179112385,0.18252756073723972
0.018846520108020393,0.17147304256377918
0.04628674744853516,0.15195470906065214
0.07268998592591318,0.12206604269009819
0.09704412220295819,0.08357116468693675
0.11945942504857995,0.03759336895578258
0.1394488515847655,-0.015343831114502927
0.15751259283789731,-0.07354130664696608
0.1727096198443585,-0.13499940360832624
0.18392174838791733,-0.1980610530056999
0.19260489937705938,-0.2614875550249426
0.200126047811893,-0.32391276820770065
0.20686322257357878,-0.3830583782554581
0.2128282291657104,-0.4363068322321875
0.2158050930937043,-0.48084839851327904
0.21305208992072636,-0.5142963109639417
0.20436657058477484,-0.5365088541286432
0.19029296660442263,-0.5494215115042658
0.1719608090130026,-0.5571781242170862
0.15097852569161704,-0.5644507454091445
0.1262103022055325,-0.5724288898808
0.09500288220878139,-0.5794496206260695
0.05434418268774766,-0.5804863116766145
0.0013717829280275283,-0.5695510828286096
-0.0626834447913685,-0.546885922633121
-0.1328547781925254,-0.5163700987082422
-0.20077658330302794,-0.4845716991930881
-0.25682860596578777,-0.4596682333369832
-0.29689822017791706,-0.44254377467628875
-0.32075010516968416,-0.43005972840729983
-0.3316668557918772,-0.4179775018206141
-0.3366268188541593,-0.4001363166963555
-0.33976565674925807,-0.37657730465474065
-0.34310889680115836,-0.3509806014512636
-0.3460809565710123,-0.32675473947500056
-0.3455699249052706,-0.3085846307632544
-0.3419280434615666,-0.29600669793284906
-0.33667395969527886,-0.28509633016880126
-0.3319624224233766,-0.2723041944904947
-0.3297693775477037,-0.2533510832681263
-0.3249419757639514,-0.22864549112796098
-0.3132574495236155,-0.20243306655125984
-0.30087345748173633,-0.18003523949909986
-0.29291983609308303,-0.16623844008096564
-0.28703378056899864,-0.1572389928848979
-0.28204281722311614,-0.1475313147946922
-0.27809351464369475,-0.13922690892545134
-0.2731402723312151,-0.132137167635881
-0.266542993991769,-0.12083287654048298
-0.2581211103467358,-0.10410265695115813
-0.2454438155780046,-0.08753306839448254
-0.22664203595597726,-0.07567377494832925
-0.20161085412672822,-0.06663112436466005
-0.17156178856524457,-0.05833419185907356
-0.14090874555058128,-0.05053701570283359
-0.11488948139351861,-0.0411745046207196
-0.09532673457403054,-0.029290896868984694
-0.08233149234279113,-0.01474373160131402
-0.07392010014930143,0.004780889985618294
-0.06659346106560762,0.02878588814596239
-0.060267085905158294,0.0495259778094934
-0.05565830053829689,0.061942089494052645
-0.05220245204607109,0.07382553641256683
-0.0501018264918215,0.09087444242165083
-0.04792550157584266,0.10397511847712065
-0.0438413144599573,0.10690541341498928
-0.03873806104634273,0.10534974031951141
-0.0335962470584502,0.10215442497375356
-0.02858567997053331,0.09472815467943876
-0.02427131621471165,0.08378599844420234
-0.020281368289162258,0.07229086335843557
-0.015882398659047364,0.06200513772859216
-0.01164448900149136,0.05482970813833481
-0.008028928818799656,0.05307829752493163
-0.004737015172083635,0.058294515470091256
-0.0016662981787644775,0.06824345541522801
0.001440527366743477,0.07265954334929782
0.005008171684372771,0.06539361610763011
0.008941027636354409,0.06055995647206813
0.01307265222634073,0.07018832790373425
0.017533438385115053,0.08280958909443978
0.022229057692569103,0.08975850695301435
0.026746029698769214,0.09762851673321289
0.030743129505848787,0.10776163308025978
0.03407377374470136,0.11609095887760648
0.03680476445310278,0.1232506276216543
0.039486643910356466,0.13112796931440496
0.042778341761032235,0.13999388107287264
0.046778738445129815,0.14930740974396553
0.05137791776801826,0.1583168861099296
0.056317437817158957,0.1663655898215773
0.06110217820268959,0.17257000145471418
0.06557978939767593,0.1765119378292479
0.06961597421396787,0.17824818654861319
0.07270100365303701,0.17780920331186945
0.07439807257732071,0.17539911879536832
0.07433887678624339,0.1709720604366667
0.07225872913808805,0.16442171388890162
0.06842307046629724,0.1560908901082802
0.06332322874871987,0.14642471262459647
0.05730877715423496,0.13605900137974514
0.05093644447130477,0.1258822358647171
0.044998196370291454,0.11669976201024332
0.04023699303561101,0.10931457565877126
0.0373507203830061,0.10450436918149118
0.03676778202810816,0.10279730413772073
0.03823630673228703,0.10440499976549111
0.041180563831876675,0.10920142890994075
0.04513619213334944,0.1166928563810508
0.04932058291594399,0.1258292378671731
0.052543624787058006,0.13482417065759777
0.053792196082219614,0.14201465038013295
0.0525235589566367,0.1469914778293606
0.04901893268255618,0.1507240009743316
0.04514461726804353,0.1562976663005042
0.04305040542343923,0.1669433764474508
0.04320439523223365,0.18233288855002303
0.045149074138257854,0.19959634799260198
0.04722526470995967,0.21289203800561157
0.047232334625079954,0.2157888358138952
0.04533418864044033,0.20823126110106277
0.04270152205706806,0.19424308183938246
0.04062867599624762,0.18115946825573834
0.040918772247710386,0.17580294770797936
0.043374571050963116,0.17208682447266951
0.04662308023782365,0.16311904364390525
0.04942977328625287,0.1551376024109613
0.050181603508702155,0.15251091600888828
0.04878252624060355,0.15342180871388797
0.046361440105295554,0.15913654381269923
0.04428751768997629,0.17063814542148084
0.044279421463358865,0.18687481434496622
0.046570154551138464,0.20839398532759387
0.050304990668207664,0.23376976203339397
0.054317114430570614,0.2558521736709489
0.05698097691785221,0.26808631538897654
0.057987266018864086,0.27019624732511266
0.05772515660993995,0.2643401239941838
0.05630724780567598,0.25533737924522676
0.054342650303877985,0.249955424778891
0.052048484396167494,0.2494173396462049
0.049694608068050095,0.2520803547819917
0.04884373098279858,0.2556681569787864
0.050870110935412806,0.2562713519991386
0.05600140015893158,0.2544407201801072
0.06354067638927184,0.25331425294869364
0.07077795497795734,0.255715230387246
0.07448990791488459,0.26492703172899024
0.0737958261539938,0.27939592733744667
0.0689703141696674,0.2945488587389312
0.06154089464804321,0.30616708751307187
0.05411959513666006,0.3094712300085443
0.04733911684030389,0.30371128290099886
0.0415327326463919,0.29236490553133265
0.0382517036232503,0.28182472089980964
0.03833461125244921,0.27944857223614816
0.0425157512453375,0.286323545440445
0.05072335321294684,0.29902206894756506
0.05973892817894903,0.31059272775859675
0.06592727004120165,0.3122749415310557
0.06811004964612344,0.3034364286579585
0.0661960156928432,0.28787090238546886
0.06220739572366783,0.2707472313366365
0.05927103967663616,0.25978276425562297
0.05741565286494546,0.25637212190995046
0.05595129511445559,0.2590442731723215
0.05490161661524594,0.268593778884469
0.053495439606568974,0.2806377058913151
0.052483907641791755,0.28481471656076895
0.05301502711780054,0.27475366370147103
0.05418298781383108,0.256933601946335
0.05516804088406006,0.24189794675476636
0.05567357282583581,0.23693142806344863
0.0552068055409042,0.24560504796891708
0.054377931629520655,0.2539200613803766
0.0541013744364096,0.24655524572797738
0.054122040180088773,0.23413345862195573
0.05412553662097175,0.22669768864091502
0.053952323336692726,0.21805344526623835
0.05317133562884863,0.20740484443721652
0.05193911423666667,0.1967990656114462
0.0506436461902131,0.18380637681278583
0.049282126632912836,0.1700048076682882
0.047969795842458765,0.15816352143093118
0.0468251698485868,0.1476310400341474
0.04582939261016001,0.13798846378873886
0.04514260057142645,0.12855249717675882
0.04491661323257914,0.11906244851887494
0.04514920852884104,0.11403947844228998
0.04578851994144352,0.11617554893462027
0.046623091442535805,0.11823760015887633
0.04738638424567285,0.11417156055557195
0.04800102185794704,0.10818152477142595
0.04850531388770131,0.10327118358251136
0.04909699458497623,0.096761953791938
0.050033926358113025,0.08854990345932746
0.051280171716307464,0.08045627031236408
0.05265656605043023,0.07227053100721377
0.053910324150523,0.06295269084354649
0.054711289779196655,0.05195938592005147
0.05500975064994659,0.03966692813456741
0.05489966698181461,0.026302267643078903
0.05445963193109451,0.011099979166275179
0.053886018501267854,-0.006250253423881259
0.053304370416777935,-0.024996012206020747
0.0528509451177871,-0.043531886701553356
0.05288021930137327,-0.05840551322909939
0.05372685852993376,-0.06766059175429204
0.055592656070868864,-0.07607218259619426
0.05855925288263076,-0.0876203386023717
0.06238833168346434,-0.0974289783405899
0.0666307864060718,-0.10242402986719971
0.07085434784751256,-0.10821314996428827
0.07441624728429357,-0.11747685382072333
0.07637228314103649,-0.12495368344871972
0.07598301891596175,-0.12741980674241363
0.0731608242832323,-0.1273171570331411
0.06864006396093357,-0.12675332755286792
0.06448790545560165,-0.1278023830344271
0.06301836602264552,-0.13345668813494785
0.06493619998435118,-0.14290441639361
0.06990183276224476,-0.1519705509668105
0.0762648784647857,-0.15385727617334363
0.08168994219393563,-0.1447722579316511
0.085861305866262,-0.13560873598882803
0.0891870917663123,-0.13615026305775796
0.09196917713806406,-0.1363788510130576
0.09505175399928537,-0.12879358148775508
0.09786208357970749,-0.12161334324101793
0.09933013797766523,-0.11895445303649393
0.099461659572531,-0.11769597622451573
0.09816811565838951,-0.11800854956185113
0.09579327908532513,-0.12008571121747753
0.0932918040222939,-0.12259554587977836
0.09121981563302026,-0.12757891055322174
0.09008564924434381,-0.137066506707314
0.0902444779801048,-0.14913030491902
0.09141592806755527,-0.16170709766818203
0.0927219281078528,-0.1736522646900281
0.09321385433551474,-0.18297198087999864
0.09272038450226772,-0.1885446884863259
0.09164777235957818,-0.19072603716895267
0.09106044148034804,-0.19094263719171656
0.09212175920323602,-0.1910204875043128
0.09439381699530285,-0.19117903771164446
0.09646456809101393,-0.19076606783767516
0.09624510933991925,-0.18865580478776853
0.09153816093903017,-0.18331454914268228
0.08259449101621417,-0.1751254505702998
0.07156855498297864,-0.16534190974660326
0.06223372661364365,-0.15491001726123252
0.058859389449400945,-0.14515412334062164
0.062125801973326095,-0.13620505543934575
0.07010866968815167,-0.1273443918764972
0.07863491545573352,-0.11812879676095114
0.08239433010100228,-0.10795976602803421
0.08057652682852001,-0.0971524907834825
0.07485997316227264,-0.08694433496845994
0.06798293658323146,-0.0789072497223036
0.06408277754209332,-0.07475404995388142
0.0632908507149188,-0.07492765934374634
0.06395713917346352,-0.0788627202079006
0.0655322071250742,-0.08533459340334094
0.06643799284387697,-0.09263280920976615
0.06694384222826076,-0.10030140828780083
0.06817694019531959,-0.10849345505025344
0.06893585940211623,-0.11730436415697511
0.06835632775917974,-0.1271071576849879
0.06632488194657539,-0.1371362724935589
0.0628968720656199,-0.14606590856080737
0.06034267819803707,-0.15301751573977584
0.06015645939830977,-0.1565318360419949
0.058763413165749026,-0.15470728990645433
0.0535298418063425,-0.14737851898347554
0.04825889641437898,-0.13829166222663503
0.04538148556612302,-0.1311724942028577
0.04120612536135711,-0.12501272988771636
0.03383925515560918,-0.11850806061223496
0.02640101171733724,-0.11220524553668419
0.020636849990529532,-0.10546250440114144
0.015202397202213405,-0.09812969955943864
0.009646094289965452,-0.09142765291886214
0.004428553661280674,-0.08674952507368797
-0.0008647715301815309,-0.0855242357744255
-0.006594929737848444,-0.0879390239891112
-0.01282867106729498,-0.09362262708266399
-0.020026346632643965,-0.1027152224826823
-0.028469535813033048,-0.11278511561358402
-0.0378156323878932,-0.11624185968470567
-0.047069488596506774,-0.10857682907887242
-0.05404271561708408,-0.09795701814042002
-0.05654139028558472,-0.09303891522863342
-0.05428268088738144,-0.09203582371487297
-0.04847710710101122,-0.09353437138121164
-0.04232898169995462,-0.09746661782148888
-0.039707492653285346,-0.10125494149285533
-0.04149439524788932,-0.10754185308532814
-0.04690686040196879,-0.11916171199028734
-0.05382879666328778,-0.13109301910894247
-0.05914428844257583,-0.13915768584401286
-0.06290163818137219,-0.14407632313508742
-0.06650755983405862,-0.14655451292226168
-0.07103627797870014,-0.14924639329317635
-0.07816498750719313,-0.1549563881271695
-0.08705974402318344,-0.1593314257278456
-0.09539506814572216,-0.157903109210287
-0.10146345442904395,-0.15335478851559345
-0.10331511610010358,-0.14739581770206905
-0.10090567580180482,-0.1383167807491512
-0.09609426936594585,-0.12723979531222637
-0.09148120885508806,-0.1182186097273501
-0.09012694847577347,-0.11433415411119169
-0.09293444082861274,-0.11636200591110488
-0.09902549615672074,-0.12322548792360177
-0.10630514697962774,-0.13025741170601485
-0.11183014746839591,-0.13204847894627245
-0.11507165635473987,-0.12844741097061807
-0.11653586612281198,-0.12179320806701477
-0.11638810452245527,-0.11615036277020793
-0.11556958466594414,-0.11690390463525893
-0.11376196591290481,-0.12395953911229739
-0.11046266478769631,-0.13394420611326383
-0.10721328274491311,-0.14228827553597162
-0.10542873935176446,-0.14343180201520503
-0.10576576188831262,-0.13800001336395062
-0.10857300049127663,-0.13074754088057547
-0.11231382652529973,-0.12800407781470913
-0.11494207095211412,-0.1340281769456229
-0.11626948274796581,-0.13842830576332552
-0.11651106014210579,-0.1317328255573848
-0.11617443163939654,-0.12543777726852443
-0.1163663311830784,-0.1273618590129606
-0.11684043043611812,-0.12607665280592922
-0.11705190649360157,-0.11607633072557685
-0.11738950611650344,-0.10669193135854145
-0.11798828584677176,-0.10288909659784481
-0.11911614584453224,-0.10082145820924501
-0.12117165944330087,-0.09933231625110872
-0.12362117737144794,-0.09996760777052682
-0.12580425592978864,-0.10197866848120322
-0.12760129711783855,-0.10515783297516237
-0.12884479383420105,-0.11057575843183057
-0.12954036730989138,-0.11865492159363195
-0.1299195140858456,-0.1295118316671905
-0.12986864283417351,-0.14226350305611793
-0.12935826564212966,-0.1549128976190442
-0.12881279480134497,-0.1649097750925183
-0.1284980400519863,-0.16974773818756547
-0.12824443253421247,-0.16875118693612878
-0.1274764186607421,-0.16310946162708345
-0.12478089172606442,-0.1560746998090993
-0.11970776856611995,-0.1515718960549042
-0.11553696795518871,-0.15053518651090533
-0.1145930113872628,-0.15206820384611788
-0.11294065468312714,-0.15369147490736457
-0.10765326592173206,-0.15199723372973628
-0.1023661246842592,-0.14732656927058171
-0.09940295788839522,-0.14173895319458574
-0.0964146526910131,-0.1372780577541616
-0.09254265661293663,-0.1367463586174483
-0.08924400567361829,-0.13980272639344726
-0.08680668316517776,-0.14420968153211305
-0.0847654597731589,-0.1480931112878461
-0.08324395095014876,-0.14878174150459303
-0.08243230278791305,-0.14532386646845244
-0.08226099929847461,-0.13809328015861005
-0.08262561532010543,-0.1270229243365062
-0.08343312208124537,-0.11478235188741517
-0.0845888210291357,-0.1085020347283349
-0.08600047520196319,-0.11297438090887409
-0.08759962021485704,-0.12319595090368482
-0.08931550267791885,-0.13151865339173419
-0.0909989406780249,-0.13312823993050474
-0.09246937413275721,-0.12548468084914483
-0.0935444751112861,-0.11773309795795857
-0.09403377913852047,-0.1204621154153214
-0.09381445791577887,-0.12768456250282798
-0.0928161683039285,-0.13329912139465522
-0.09099155315798234,-0.13999191280952794
-0.08837591379236265,-0.14689628346034075
-0.08509641054885879,-0.15336649017983306
-0.08139652821023288,-0.16118397946122867
-0.07770198109994883,-0.16753985221639808
-0.07448225216044904,-0.16947183258515958
-0.07206416776344267,-0.1677070616410129
-0.07065147538456923,-0.16329129473419973
-0.07023466910771722,-0.15871835537683016
-0.07064469648651292,-0.15593871849793672
-0.07179373347890092,-0.1501978789641133
-0.07347341968888034,-0.1375873953803785
-0.07521790031027124,-0.12344941706714548
-0.07655700870785279,-0.11305168371832404
-0.07708668197397686,-0.10700332373945846
-0.07654984051646058,-0.10607072371256673
-0.07512322357307802,-0.10733224620725301
-0.07314969022419109,-0.10666812441001271
-0.07073766429512977,-0.10727073356188178
-0.06807644393914512,-0.11197226418100015
-0.06550098142190444,-0.117250170962961
-0.06328754327569676,-0.12049921396315996
-0.06181688250255462,-0.12054547963014225
-0.06135135866355618,-0.11558379411517858
-0.06165666633730719,-0.10721209958684909
-0.062388091186717586,-0.09775148109467761
-0.06341388188232923,-0.08555705695712063
-0.06454017642782899,-0.06949846443861839
-0.06558074416230349,-0.05108628227444259
-0.06646918876852916,-0.031030752447809666
-0.06705467711423153,-0.00957557760086064
-0.06739508336608303,0.012343988684737305
-0.06810858942145967,0.03418137925940463
-0.0697298188971671,0.055688448465583594
-0.07207163525927372,0.07648625791277412
-0.07439061423878843,0.09633159532382998
-0.07506024501137948,0.11495182237028076
-0.07237844021351766,0.1315667743965643
-0.06630715476065346,0.14441521643227753
-0.057947362970939234,0.1502730651748342
-0.049604023804150535,0.1437376900807771
-0.04407722157013156,0.12188306288885012
-0.041967944032378746,0.09107920968312003
-0.04256601275152836,0.057998164303036316
-0.044262383827081926,0.020000633488083328
-0.044742644348299214,-0.024409973668878333
-0.043982907969213746,-0.07127310051903654
-0.04305838543424364,-0.11894824442124452
-0.042957510504534994,-0.16681508621770422
-0.04509456599725375,-0.213532109320299
-0.04884890257170517,-0.26050320320465753
-0.05235706725088768,-0.3084154389387728
-0.05398955657887836,-0.3525170847791708
-0.051906073629842474,-0.3887067382522903
-0.04607474614636629,-0.4185425117058084
-0.038116063167183065,-0.4435638358254073
-0.030425519125628606,-0.4636533905232819
-0.025918086384890744,-0.48007555152747106
-0.025592865941439,-0.4933064060916433
-0.02902799038305508,-0.5024406445597491
-0.03498571061626179,-0.5065777366141448
-0.04129868112053215,-0.5048776369409433
-0.047269101772131054,-0.49806553132718084
-0.052428892159579285,-0.48821953130300305
-0.055011586489018716,-0.47821600424474925
-0.053873220920282947,-0.4706951948275009
-0.04842473335907544,-0.4648698827842122
-0.03919666341901924,-0.4587052231418707
-0.030095526907555716,-0.4514013627119564
-0.025428972300400275,-0.441200289819325
-0.026208786549969446,-0.4262863680051016
-0.03164504495319566,-0.4069728589118075
-0.03810005408639208,-0.38638221547010115
-0.04070715557228119,-0.36788692766952513
-0.03921385814574497,-0.3513888193634051
-0.03522041403105768,-0.33603497742356964
-0.030753079140862394,-0.32151788597950975
-0.029110510094384395,-0.30661020509982045
-0.0300041632729784,-0.2917096737677928
-0.03156150961976503,-0.278010901620074
-0.03323817722708597,-0.2654110290649285
-0.033757230100437526,-0.25390236434800056
-0.03339689598825269,-0.24290764364391193
-0.03359703373640906,-0.23107929364550156
-0.03445438747313746,-0.21757902568584153
-0.03617505767347757,-0.20170053311893307
-0.038550295849183666,-0.18315951016848003
-0.04046937799087719,-0.16265050884050697
-0.041102543341775176,-0.1417642755607011
-0.0397256572087715,-0.12223796070791566
-0.03618707665780007,-0.10460448446354606
-0.03125024532283395,-0.08845128962688853
-0.02640687511383755,-0.0722787108470457
-0.02333077871526538,-0.054204294688926104
-0.022541154333008257,-0.034363003564829804
-0.023739383962456853,-0.013880760292314291
-0.0259218606926444,0.0057169847383837635
-0.027638067321111355,0.022419790126604434
-0.028785666848021252,0.03615621820226894
-0.029790759481236932,0.04791906356621982
-0.030880910403001047,0.05864890490780242
-0.03260915608214557,0.06967246988788842
-0.03463266525443615,0.08076618311586216
-0.036230766510447335,0.09057986634692222
-0.037380881032079996,0.09765427495941648
-0.03796930349770273,0.10031854048252524
-0.0380550297821624,0.0985854479891203
-0.03802318409417074,0.09383249422969249
-0.037927354404287086,0.08810322153371741
-0.037811501873801265,0.08414446120091024
-0.03783731396297814,0.08347004737620668
-0.03798216227311407,0.08702946304364573
-0.03813996886852995,0.0961251694272982
-0.03822432430811398,0.10919090970817859
-0.03821964341525257,0.11940588528877831
-0.03818562941744757,0.12224013107351106
-0.038267194824996416,0.12432921445666524
-0.03857308392557099,0.13114897560791916
-0.038902251433782835,0.13544673525713297
-0.03884366623006011,0.13238952005812618
-0.03782169103480559,0.1270977652271827
-0.035319841335457874,0.12216701985776983
-0.03148438830859547,0.11604878444637111
-0.02707980720377644,0.10896816460263826
-0.02356736211805604,0.10029582255494204
-0.022486988495706427,0.08974249145370335
-0.024033192195510873,0.08314965414049082
-0.027348946456354987,0.08552191500488003
-0.030407581731618526,0.09331254639318655
-0.03081483455541864,0.10254663401237311
-0.02831466661053001,0.11280304775093798
-0.02395711468584949,0.12088654005135153
-0.019799056097599202,0.12149601406556843
-0.01851408763018701,0.11353739998374444
-0.020297654912833817,0.10362610161867819
-0.02402232985918684,0.09785107778665264
-0.028242106348990093,0.09255130384307796
-0.030813270615322894,0.0864445615998743
-0.03159930880211387,0.08953486982539359
-0.031494894784899106,0.10575935444074629
-0.030916522467743967,0.12228776992905419
-0.030753488364868162,0.1283031479376537
-0.03078854356678992,0.1268959709312655
-0.030133409047215898,0.1216648832782408
-0.028711353656155774,0.11567135821200711
-0.026364042776684932,0.1156751963587047
-0.023391416110623918,0.12191267719696604
-0.02069317490757959,0.13034923111775953
-0.018888975851594565,0.13727994769612661
-0.018521757437273526,0.13775125644647213
-0.019673842335992103,0.13233596104857454
-0.02168325735641463,0.12523406036999107
-0.023280139584612454,0.12015133694162963
-0.02311591055432541,0.1217499548192828
-0.020922502805448964,0.1302318139758674
-0.017312033223103953,0.14203741861895572
-0.013833063124926236,0.15269742843948253
-0.012369036157732181,0.15686476399629867
-0.013102763146812347,0.1541201936412949
-0.015288205546332164,0.14779758070518426
-0.017658743070145776,0.14289114586470936
-0.018464444870916287,0.14562876764260016
-0.017653006074079793,0.15666475491242216
-0.016025267010147493,0.1731194769779611
-0.014282975545046076,0.1910854923930439
-0.013554995352687673,0.2051204262161934
-0.013821271503796502,0.21481751991760575
-0.014408538218211765,0.2225929596513895
-0.01509445180325132,0.23033650631617647
-0.015433507834263852,0.24099067754806489
-0.015530879176784104,0.2536395185597738
-0.01594315817286716,0.26488153047911633
-0.01682333987447926,0.27224260536388845
-0.01835381152219074,0.27276839200648734
-0.020453816439978918,0.2664653967826713
-0.0226558243648011,0.2560132828576573
-0.024527893288673042,0.2445244282502234
-0.02563943842990862,0.23581906005531483
-0.025883264106908364,0.2310770646128997
-0.025547419973211815,0.22927898468998145
-0.025215137318214356,0.22854144282034952
-0.025562926376794554,0.22630106078443132
-0.02671726746057793,0.22319228494242654
-0.028432958180449455,0.22176365584309932
-0.03019620749112161,0.22481879521238288
-0.03132037632587004,0.23554275848990677
-0.03176661575673114,0.2534177672567019
-0.03180955768643874,0.27528632832819766
-0.0317181121849211,0.2970737624552873
-0.031928690325470445,0.3136826004583354
-0.03240531649722154,0.32315076886708977
-0.0328732617685407,0.3257538835677209
-0.033260084223933124,0.32252600675250687
-0.03339691411086885,0.315903051496489
-0.03330002795017231,0.3062799487129282
-0.033136634186387744,0.29361924027116004
-0.032872476853560643,0.27992276821346523
-0.03249187765069801,0.26689881863198606
-0.03197789146554039,0.2566795071817676
-0.031239617855318223,0.2512528797382403
-0.030287634005505448,0.24961241477038315
-0.029153883301641773,0.25004077949465975
-0.027832897573861207,0.2521139901945649
-0.026355516817430976,0.25484743944715227
-0.024749742732236672,0.2571448607724517
-0.023032897312885527,0.25840698565910736
-0.021240154539490155,0.25728823431294073
-0.019397095279053415,0.25321561535509757
-0.017507732329839123,0.24815330612381814
-0.015577308513881732,0.24421944013495175
-0.01362498797012111,0.24180040312045264
-0.011671607450447947,0.24061871187247483
-0.009740325952390574,0.23887661043308359
-0.007863504819371854,0.2341224213430332
-0.0060737491331494435,0.22645563319482712
-0.004417444938592059,0.2166607093233242
-0.0029739635265858704,0.205076880810248
-0.0018377840944039903,0.19282882029206583
-0.0011062273181514752,0.18016099932118435
-0.0008928484389396296,0.1671486043596733
-0.0013239715663142177,0.15545570975787482
-0.0025654634065923046,0.14636541833524097
-0.004874976985595727,0.13982585421961835
-0.00859742382968423,0.134790561722799
-0.014176527536504032,0.12785087375044552
-0.021796535828657756,0.11663476108619177
-0.0308334459761143,0.10531105603333318
-0.03979503557754655,0.09786490431740115
-0.04604022846275429,0.09151712686180348
-0.046931203905558605,0.08418624478197985
-0.041907859630578304,0.07713794559096226
-0.032177965963448775,0.07010539164260349
-0.02121276622431269,0.06276485833350601
-0.013258047622463666,0.055476538076558925
-0.009305853687583797,0.046646905034056135
-0.008536291842120479,0.03550184492556013
-0.008673121284300206,0.0252458451962355
-0.006380721605472735,0.01869035876900253
-0.0019225292122082179,0.014893442028040205
0.002902932132438097,0.012574035562853697
0.0066941034590283065,0.010577508679059171
0.007250327710360281,0.006761445081480639
0.004866783149051797,0.0006344318519221762
0.0012121344909315273,-0.006960033893343577
-0.003116799690090916,-0.01477040334117563
-0.0069780645017203675,-0.021114216053101972
-0.009997240147186616,-0.026089325904450508
-0.012594783549167557,-0.030773092524621414
-0.014293070177138472,-0.03615426385155504
-0.01482611036197212,-0.04358310644500053
-0.014172621059166028,-0.05295322029602679
-0.012303665940868493,-0.06320149976129293
-0.010159730628823103,-0.07342867787638463
-0.008867896226722884,-0.08239653873655267
-0.00885350804364744,-0.08979033585386044
-0.010241309602850709,-0.09601209676055808
-0.012403467221166933,-0.10131854709946882
-0.014350013533782763,-0.10615215749937033
-0.01601334620097592,-0.11021584662712267
-0.01751593110797268,-0.11265713572042219
-0.018855837446603022,-0.11274003988726818
-0.0202813864195412,-0.10998959692824523
-0.02149288040236581,-0.10545580118419713
-0.022091416024012933,-0.10168869496386669
-0.022341832484366046,-0.10256077919267317
-0.022479653847560097,-0.11080450729097485
-0.02262068321669741,-0.12330300387969878
-0.022972779677293366,-0.13574244048155934
-0.02340660111761728,-0.14769384350463802
-0.023702979970022558,-0.15709645536544478
-0.02397595670824315,-0.15900939788340185
-0.024304244757272653,-0.1524143701140539
-0.024641547906629705,-0.14368429521305753
-0.025013061756608935,-0.1390626408673302
-0.02536235086445537,-0.13764889901375676
-0.025619765045624385,-0.13759890279571904
-0.025899751268924652,-0.13759226905585545
-0.026318931876980083,-0.13443899961192082
-0.026880292717519877,-0.12870928534033352
-0.027590295351028287,-0.12295544151857546
-0.028419580732480233,-0.1181521942244718
-0.029290132835282586,-0.11594342049399478
-0.030182953930484334,-0.1163211543869242
-0.03106093758766276,-0.11788839028604263
-0.03179778781819445,-0.1205143696251404
-0.0322798321345174,-0.1237843516499105
-0.03243956694662666,-0.12748976389343566
-0.032245353156614406,-0.1321390365996186
-0.03177000751712058,-0.13769094620760247
-0.031152475580397423,-0.1439327024555983
-0.030514118123838398,-0.15028694585848204
-0.030039659736954695,-0.1555272114754882
-0.030013478250935886,-0.15819524822470082
-0.030648923309161014,-0.15706223472021813
-0.03194529826276241,-0.15214718432066512
-0.033635832002890526,-0.1447783713095472
-0.03501969092933169,-0.13773944481282802
-0.03532212144794763,-0.1341103550939839
-0.034306517392504766,-0.13463116730785762
-0.03209371998108942,-0.13831058581617206
-0.02925636749613374,-0.14228665708251564
-0.02658031472567684,-0.1428463498739543
-0.024130449459056565,-0.13946716720203445
-0.021673729222894976,-0.13317933104015492
-0.018926261073942987,-0.12559213482592096
-0.015394642892206767,-0.1193341155971677
-0.011134632064909807,-0.114432826785972
-0.006407219000508387,-0.10995191458355
-0.0011622776024706107,-0.10620663863308633
0.004517226213082104,-0.10101779319018936
0.01062077673876356,-0.08841507389620815
0.017178222714971166,-0.06594644074305243
0.023801642870036742,-0.04236377996027673
0.03004822672338106,-0.02767450107960244
0.03566824424817011,-0.023665460562534553
0.04040122897842431,-0.030028255703795997
0.04413801206591094,-0.04103785266186167
0.04686660324839595,-0.04853625778909239
0.048373503555938065,-0.05603148723733373
0.04846361550596033,-0.06674850388174895
0.04708644369548055,-0.07294149832538684
0.04423946240622889,-0.070211780253421
0.040138364113821955,-0.061089845175430375
0.035205802842368,-0.0492420624616296
0.029969746830923752,-0.044175679957578436
0.02503142681540348,-0.05336694944396559
0.020867255830699705,-0.06628920108192342
0.01778922858097348,-0.07200155973550518
0.01590481366938992,-0.0766167663941705
0.015087810750542491,-0.08372129953907283
0.015115876813553818,-0.08812860744480427
0.015451987085836782,-0.08949404648835146
0.015023133205785227,-0.08978453850243333
0.013039252274975667,-0.08960629594469745
0.009924306238557199,-0.09244802249434923
0.006095170552993308,-0.10040460921576361
0.0007852070977300167,-0.10780029872003186
-0.006175325918795509,-0.10935803840065884
-0.013271189012013877,-0.10789551136926526
-0.019164830170480825,-0.10602905535214055
-0.023568939530737507,-0.10317923614397641
-0.025991198628007934,-0.10063076932213426
-0.02564369033575859,-0.09883902794181519
-0.022841652226251615,-0.09650797372243494
-0.01964990407528082,-0.0931375704916405
-0.01818549830542214,-0.08827471613488735
-0.018942555356119016,-0.08220982876654835
-0.02155294371414136,-0.07620211570442639
-0.02435131689735152,-0.07151176445425511
-0.025131060827235294,-0.06943138416067106
-0.024045872457480664,-0.07025229865812119
-0.022280637104843935,-0.07368545093306199
-0.021292990254021066,-0.07985305330099751
-0.023077951437897294,-0.08839736832124455
-0.027529111647683645,-0.09859339028671905
-0.033361177455767096,-0.1097714718383555
-0.03941027255252902,-0.12099608525027879
-0.043995034080525956,-0.1311871152513032
-0.04677799867403549,-0.13920277442639226
-0.04836251673752782,-0.1442573927635327
-0.049127623261965764,-0.14663942971522326
-0.04983776168353427,-0.14703908325246254
-0.0505049056144057,-0.14582234407203676
-0.05068975459236085,-0.14378133582488772
-0.0505424361485422,-0.1422461420957002
-0.05011839724898288,-0.14237741757528555
-0.04975727828720163,-0.14504966038249004
-0.0500379846114047,-0.15037906604294193
-0.050956944528484684,-0.1567619940396773
-0.05241440722365583,-0.16222738199955195
-0.05436103814356448,-0.16629830686404992
-0.05645220610472604,-0.16906835218970032
-0.05827567792988017,-0.1713887738025749
-0.05945981006330925,-0.17457411143155693
-0.059707005639079776,-0.178052281757214
-0.05899359734924708,-0.18064374200532857
-0.05775366035919581,-0.1816295419220878
-0.05654105002968092,-0.17998305656790506
-0.055521490147019126,-0.17580775496909043
-0.0547536515421761,-0.1700221479111985
-0.0542286364428362,-0.16327189659675112
-0.05379749499104398,-0.15647305561380617
-0.05363791099156051,-0.1500891351207303
-0.053933555426485695,-0.14402224566957358
-0.05448164617076759,-0.13813707281229226
-0.0551062119774598,-0.13224066375207363
-0.05570296937513619,-0.12683414883103605
-0.05617067856905759,-0.122930159903081
-0.05671176979575066,-0.12167033766259679
-0.05749864001632631,-0.12401927066718857
-0.0581761856762291,-0.1294636494086256
-0.05810491200618232,-0.13616270008709164
-0.05631468262338162,-0.14106634563018386
-0.05183879948915402,-0.14098514890789748
-0.044664721830186736,-0.13537616339729225
-0.03555746977718772,-0.1259252564153314
-0.026113088780292868,-0.11676004960288353
-0.018234369814212437,-0.11283598904922006
-0.012508172880219189,-0.1149894409250163
-0.008670405861284447,-0.12158115510048943
-0.005711199463471706,-0.12907063366288282
-0.0021015071206574006,-0.1326402215663375
0.002265722592937037,-0.13212658041994363
0.0069626473067464275,-0.1295999001488705
0.011804313894283413,-0.1271389842493768
0.01625094356326582,-0.12802002357932715
0.02066162971840019,-0.13209473115059628
0.025728080126891553,-0.13744345841150726
0.031293392461021086,-0.14343537496541212
0.0372387094525552,-0.14862518596577046
0.043306543380523074,-0.15282354451947008
0.04887180180309416,-0.15674661866112705
0.0536154037739548,-0.15944723752540163
0.057250929268443024,-0.16011681357580956
0.059368921828266946,-0.15818432950131908
0.05982072363349961,-0.1528404076191992
0.058727200209507904,-0.14449454906033637
0.056281212285492176,-0.13403567271862965
0.052613152528120835,-0.12197882019651722
0.04788494413180354,-0.1093419476643828
0.04228716624324795,-0.09754644768975759
0.036020926321516454,-0.0881270093465368
0.02948245456095722,-0.08311608494618629
0.02306995132499615,-0.08468216544647784
0.01695010566233511,-0.09465982650826534
0.011326398183442622,-0.11259763657873409
0.006574712351667078,-0.132654933032109
0.00313164092399361,-0.1493969013627858
0.0016166286467033835,-0.16528866213253177
0.002694140028234665,-0.18247181112624775
0.006735917598431642,-0.19688490482595986
0.013992574685597229,-0.20635317545705398
0.024650832836865373,-0.21188465614911958
0.038667522492251166,-0.21355836515653487
0.055875529936559164,-0.21240720304727959
0.0758551042692575,-0.20900161128962663
0.09770000449166637,-0.19893227440554306
0.12037976729105157,-0.17842979952025087
0.143103072764255,-0.1505555055909772
0.1652478432212226,-0.12050218760335363
0.1865903766492807,-0.09497036816405106
0.20714143681193373,-0.07943581348310327
0.22658999985911824,-0.0674427494291264
0.24473409966059526,-0.050432689422453235
0.2617360080590571,-0.029680411856299067
0.2777216951192326,-0.0060321707416642785
0.292853120139994,0.020565433411256155
0.30715605368849325,0.04669772048134425
0.32001111831029283,0.0721990596571613
0.3306483486882312,0.09682013686351973
0.3387032088390158,0.11509959360248406
0.34377385999621307,0.12504993941008974
0.34542667272545297,0.13415881225324208
0.34339012964989357,0.1488593069642788
0.33721653418261033,0.16626911995177668
0.3266349926304105,0.1822486919931501
0.3120305673032449,0.19275865727398167
0.29334674826293305,0.19169397030434734
0.26894934638279777,0.17852848167855434
0.23744191569022727,0.15687517505497772
0.19936879594739246,0.13157233074031668
0.15532957226165933,0.10649099877304977
0.10516772774962505,0.07452773727540599
0.05077459286438034,0.025725449971157176
-0.0022159803415883065,-0.04230875439313761
-0.048365407859007226,-0.12762375375514706
-0.08615387557757213,-0.21524862981480244
-0.11598393675763384,-0.28980850285223214
-0.14081439842003204,-0.36115411231186095
-0.16506851413964668,-0.4358423084836253
-0.18894990831826142,-0.4927948622711887
-0.21056020097008046,-0.5210473524227169
-0.22706524898843394,-0.5391905966107439
-0.23455781083655877,-0.5607817894637984
-0.23355306820267574,-0.5801597600972261
-0.22661304589323192,-0.5941533355700014
-0.21552705760061228,-0.6013301112929281
-0.20323898796429699,-0.595285255083656
-0.19062698548695334,-0.5775315393499165
-0.177359200308452,-0.5543678125884469
-0.16477072765734233,-0.5305529674619991
-0.1535780127511412,-0.5121380034430756
-0.14421621386890152,-0.4997913307543099
-0.1370018355871316,-0.4901187017508414
-0.1300258088766345,-0.48032297315778305
-0.12097633432048263,-0.46626449465488545
-0.10898098973778128,-0.4470262506149995
-0.09368923390718661,-0.42467199034712577
-0.07620936600530165,-0.40144982962302217
-0.05843288388917374,-0.38071290786828416
-0.040482444297717274,-0.36323167324961025
-0.022301569274952436,-0.3471982538804219
-0.004477178559176623,-0.3292286073740269
0.012847517935921744,-0.30562965618877636
0.028825606357893056,-0.27795965460615546
0.04265167518265976,-0.24963280581035596
0.05520441376612681,-0.22238241861562025
0.06747253627250942,-0.1989624452031392
0.07966563008462002,-0.18028207014068684
0.09200497829603832,-0.16462288679558143
0.10408526306437964,-0.14933963336059777
0.11505704640173717,-0.1313479510476641
0.12478798879473267,-0.11039020620120372
0.1328707569221064,-0.08813416405240879
0.13793357635549708,-0.06696423512612654
0.13896582269561047,-0.05039475361077297
0.13592431640452293,-0.03991802218321586
0.1297685059483621,-0.03524240211256827
0.12347769561117945,-0.03477525009484333
0.12046334432509521,-0.034982807481926906
0.12183462390895526,-0.03252174214126068
0.12747549149508267,-0.025814640081329394
0.13584826555708315,-0.01765856782923568
0.1444050934370715,-0.011006256062575898
0.15288856370426804,-0.0019893744718106872
0.1616455000221354,0.011820872544299095
0.17027305362853976,0.02505666852909771
0.17892035635910472,0.03361534420342925
0.18658588361068684,0.037902073533085875
0.19198726290628343,0.03813229570427047
0.19564027127887687,0.036240014706836375
0.1981341000913348,0.03580685549212074
0.19968404762375097,0.03740843628958546
0.20084400982742787,0.04051195655664436
0.20153550367511716,0.04452993031436343
0.2014912887557945,0.0480442869838917
0.20127886001577658,0.05186112765575325
0.2013568763264479,0.05748237270799386
0.201698187431943,0.06488004072770837
0.20235469097641418,0.07426310947096396
0.20320471543666382,0.08520996449254391
0.20392598184758454,0.09649500559382473
0.20437742635994685,0.10763634601759495
0.20442314951574245,0.11800643536301811
0.2038567379709904,0.1265416844648991
0.20272024704934904,0.13239704043020747
0.2014458110015601,0.1345983757149565
0.20050860251442823,0.13232130821826735
0.20007289050448995,0.12549587187430605
0.20015426451331156,0.11479941300492123
0.20053620937728261,0.10197880291991637
0.2008716114949086,0.08932694505757015
0.20122061788531564,0.07856121074605592
0.2017159738176083,0.07116497443608094
0.20229812657815982,0.06823426959679035
0.20299152447073784,0.07004506119634055
0.20369840614859652,0.0765313127350853
0.20426876284884907,0.0862135572275149
0.20481601287438017,0.09490887158850514
0.2054621321966872,0.09830453825782312
0.20620957628560788,0.09474007258612745
0.20708224526070582,0.08480318712985695
0.20801939142749865,0.0729430204956481
0.20892251637682124,0.06494655900584506
0.20984306438601638,0.06186274093600565
0.21086359805532984,0.06293056272614989
0.21204479442963434,0.06647257366980577
0.2134828013973661,0.06944591683433167
0.21520826953808514,0.07316287268599854
0.21721030907320316,0.08050226685880056
0.21950285225697355,0.09255913477623774
0.22206536212421452,0.11072473610216682
0.22485590638669337,0.13343455836515442
0.22780867945501482,0.15642884497577514
0.2307792509184072,0.1752701416616731
0.23360942843229052,0.18676383859306314
0.23619545867281855,0.19430728513847514
0.23847336957999943,0.20239700267694402
0.2404636621081102,0.20871615885842038
0.24223884377302374,0.21285528118955602
0.2438209408532122,0.22059926375348335
0.2452571768496534,0.2338261478576701
0.24665974238313884,0.24605813111069905
0.2481289951441675,0.25199977922357675
0.24975998931855914,0.25372686064710614
0.251602818559584,0.2536443870033093
0.25356197891650706,0.2532880703835906
0.255487462486146,0.25596364450230996
0.25728068848712277,0.2616748971351993
0.25880273586975167,0.2681171501242139
0.25986860798725203,0.27347213964827966
0.2603212022099088,0.2751903347080322
0.2600150179726427,0.2728005370959985
0.25889254441052895,0.26743756498510635
0.2571109501117006,0.25987525926623534
0.254929232650848,0.25148791289869804
0.25258825738131957,0.24247391656652173
0.2504303547277957,0.23227537299031176
0.24891139762911207,0.22122532179547988
0.24845494512803432,0.20948986924702345
0.24939221422834948,0.1977023063433808
0.251854332568075,0.18685514688095992
0.25556489458589765,0.17696712050133578
0.25999400144363477,0.1680322102571317
0.26459224204203746,0.16044679073570955
0.2685385637972383,0.1545125419165369
0.2706491294827325,0.15097017242170527
0.2700446048197398,0.15069100883991127
0.26679263344375675,0.1539090525433524
0.2621590934276387,0.16070932570643892
0.25930684422370687,0.17113737531362563
0.26154017131496454,0.18487226189050246
0.26936910834700034,0.20149424881694944
0.281224822216648,0.2202731802336808
0.2928723082044373,0.2397677055416684
0.2992251584851572,0.25841160877593183
0.29971896374303797,0.27504204528258724
0.29632039548172473,0.28877519706719507
0.2928366216536394,0.29935680950900095
0.294198358740539,0.30697092138959736
0.29997748260413654,0.31149493004099116
0.3067379315704578,0.3131307049425169
0.3101447610455732,0.312800040555111
0.3065236968420366,0.31145746713350403
0.3017796844412003,0.3099892062671455
0.3020290001967328,0.3089975896937961
0.3012983292329065,0.3080228998594506
0.2956559971379062,0.306311978048021
0.2904500291954635,0.30389215003143727
0.28817482939884614,0.30076682192493936
0.2866951056776704,0.2968081303969033
0.2859329212982977,0.2921266389925536
0.28705033871541186,0.28640531475307535
0.28959846045521265,0.27949187447649154
0.29222948271558474,0.2722712935110283
0.29388150369877847,0.265715954795843
0.29400679258257384,0.2603334446954404
0.29262509864848657,0.2566214638950221
0.2910496998882873,0.25470059020322094
0.2908373622498021,0.2543798872241606
0.29178846377055523,0.25583873199591556
0.29303783300088104,0.25896382602020257
0.29338123206510286,0.2628242941358779
0.29122268742918234,0.2663827106651364
0.2866370679742744,0.26871653384244004
0.2806564096426674,0.26889109027526104
0.27443954729464404,0.2664140101797187
0.26958554964488635,0.26091851588262127
0.2664750799965132,0.25148858042479505
0.2646923758605397,0.23725183129078814
0.26386518397306397,0.21766213482852365
0.26322037242605656,0.1928063162019091
0.26270958517525705,0.16459484168809713
0.2626153381723116,0.13685114604647974
0.26262616419474977,0.11549207115909574
0.2625483815472026,0.10465090444880631
0.26200468904144764,0.10023539472407667
0.260522241001112,0.0973111811899775
0.2583685833071184,0.09811270672545733
0.2559385652541145,0.10219680965059684
0.25334362714523223,0.10193908413490588
0.25083412829633267,0.09408489614169781
0.24857275881377125,0.08547729636499839
0.24661693443406077,0.08166934438623144
0.2452862068801636,0.07915390191696497
0.24480490089340173,0.07429474981931994
0.24501236379696054,0.06510673444137224
0.2457257640203806,0.04792735029824682
0.24686334827773812,0.02363263781004642
0.24830465723559625,-0.003217678309929822
0.2500395803249127,-0.027574296860525628
0.2521005321560081,-0.044246168987205195
0.2543079560776434,-0.05377599287317615
0.2565081012700316,-0.06069631704820376
0.2587404335369729,-0.07057351533688748
0.26101452661323615,-0.08792531617113516
0.26328410204161906,-0.1067246387839358
0.2654884170851608,-0.11971352341645959
0.26741379049982633,-0.13116182467947887
0.2688127422893661,-0.14245602081537315
0.2696068634004403,-0.14535336382280473
0.26974145065088395,-0.13708646164504376
0.2691464175453335,-0.12597157290339045
0.26783200736833934,-0.11847593128104268
0.26580989999899457,-0.11209654464724719
0.2631545026875978,-0.10511530642797669
0.26012859941980654,-0.09881949494264952
0.2570126088288314,-0.09232100588376932
0.2539539103562957,-0.086371449734391
0.25101580914660465,-0.083448579504768
0.24808603558746697,-0.08432229720697214
0.24492266759396378,-0.0896561819093071
0.24135768418849,-0.09937012151703098
0.23712917676199863,-0.11212316944984202
0.23177285602392067,-0.12675959553056948
0.22502209012805915,-0.14172095118620162
0.21713647836482342,-0.15519577048941618
0.20901309019458708,-0.16552314223816522
0.20257656282251374,-0.1707467832591765
0.19977069186988436,-0.17044497402956327
0.20090200405139572,-0.16797168614291355
0.20499840882640544,-0.16593821007115125
0.20942481442368283,-0.1609178347394765
0.21099563092281717,-0.15084808746336445
0.2091076141266213,-0.14135206462621383
0.20460318179741865,-0.1366026861656729
0.19944561672518613,-0.1344819439798898
0.1964697974320882,-0.13406501039842542
0.1958508000361403,-0.13708571510956963
0.19662427155945691,-0.1428460525134349
0.19814445589970014,-0.14813782303470727
0.19893831500789766,-0.15043159613195903
0.19885473339909715,-0.14883274294044224
0.19812164769603663,-0.14373164647023723
0.19526026647245578,-0.13829793502422616
0.18916380910013625,-0.13647370733918915
0.17956407621890036,-0.13866773241152816
0.16681147034380955,-0.14378080628859635
0.15357045819972853,-0.14964743333575903
0.14295820819789165,-0.15296911763295726
0.13573030005612804,-0.15365674379077754
0.13158671995479482,-0.15276419189347168
0.12878169712782625,-0.15024097458565658
0.12466143187243936,-0.14723659683698875
0.11913856495592873,-0.14469140562129104
0.11298679584502247,-0.14254857939400356
0.10663347857081179,-0.14040885109230353
0.10116129228453945,-0.13795266115224264
0.09609584342272301,-0.1365868592208858
0.09034733905929249,-0.13724220025556988
0.08410445105044112,-0.1377141180773062
0.07735259868174249,-0.13660738686173127
0.07022021478128308,-0.13623641760207908
0.06323711424145398,-0.13840174393746382
0.056125022242309815,-0.14223375270067282
0.048531687166669044,-0.14652752360014515
0.04059869215341847,-0.1487903830126573
0.0323419808503443,-0.14697887975082735
0.023861394332753933,-0.1446547988336827
0.015412756647027038,-0.1450898608397036
0.007005920818742184,-0.14484617135839295
-0.0013529313126278756,-0.14176019584240543
-0.009485446091443478,-0.13919523455236207
-0.01725306457423749,-0.13890333680491593
-0.02450965159034631,-0.13939664754848552
-0.031061656161697215,-0.13977415500933318
-0.036775944779232635,-0.1388701957759737
-0.04157189444501027,-0.1348940298173105
-0.04543570043118216,-0.12805423455164147
-0.04849163445422845,-0.12044496455645243
-0.05104013195481568,-0.11616280427473667
-0.05342817770457132,-0.1176024533610615
-0.055863148555347124,-0.11839113153548655
-0.05845364775771452,-0.11161752365177932
-0.06115978861087734,-0.09876789185842856
-0.06386298373413629,-0.08352362088778482
-0.06664973815672999,-0.07324905229124765
-0.06964206636234083,-0.07442162731255232
-0.07288365257710117,-0.0769035706079965
-0.07645056983479075,-0.07124372330688751
-0.08029236975383837,-0.06785998779411173
-0.08431435639755648,-0.07362258987176054
-0.08856646082248888,-0.08013275789032577
-0.09318201486047703,-0.08321972487646609
-0.09847245063690799,-0.0857263413270186
-0.10503107386141006,-0.08776384197828363
-0.11374429444313561,-0.08989825293108197
-0.1251231122866718,-0.0945129597059908
-0.13829854304032255,-0.10079295622698568
-0.15093362367569307,-0.10612893083537922
-0.15872377782210592,-0.10717390732506325
-0.15763433486197959,-0.1005012859197061
-0.1479048647223791,-0.08710099370728334
-0.1334780239777381,-0.07165387241931367
-0.12296026912183745,-0.06216721650866018
-0.123014151121713,-0.06544532259542983
-0.1253516569784437,-0.07643379605503901
-0.12163049875741884,-0.08763612198541831
-0.1193246335745908,-0.09914076236031034
-0.12263282845808436,-0.1077882506566458
-0.1241885770685773,-0.1059676548164164
-0.12141304058162321,-0.09306186621907532
-0.11913856754761659,-0.08002501279283471
-0.11980673404979952,-0.07727634033773496
-0.12243785534467223,-0.08275292013595328
-0.12692839829967162,-0.0921770636132323
-0.13275849993724895,-0.10216924513179895
-0.13843584414754015,-0.106220837266857
-0.14467147122111404,-0.104461106035602
-0.15222072968655337,-0.10126637601399993
-0.15936688543874478,-0.09970232095991238
-0.16480873069742458,-0.10410709852621876
-0.1685207487616081,-0.11434534522774492
-0.17056521393450702,-0.12690667575754522
-0.1721837974542527,-0.13919068689705646
-0.17477557896647303,-0.14750391334616222
-0.17742719414777472,-0.15065361450126546
-0.17775948365290398,-0.14951239999706611
-0.1717757924028913,-0.14398442038404766
-0.15831860725834893,-0.1379662890543219
-0.14756005977986997,-0.14215722328856195
-0.14783289867588176,-0.16129505682702983
-0.15000926176100018,-0.1797363806026521
-0.14649344260827526,-0.18359482022879167
-0.14406365863891443,-0.18363893569704073
-0.1461072521416793,-0.1888058476356405
-0.14892583250801408,-0.19275686020409077
-0.15179347271787857,-0.19470444626612907
-0.15384801064375,-0.19817067472330216
-0.15305795085023524,-0.20125740457186359
-0.15169153827413398,-0.20102223909240138
-0.15241043441704824,-0.19609663826153936
-0.15398768653687123,-0.18714452731299608
-0.15543325872983793,-0.17594022071791376
-0.1567212035627796,-0.16422474466603676
-0.15693696829251702,-0.15429102188011598
-0.1562342022238813,-0.14724582806739486
-0.15563626288279178,-0.14301751103064486
-0.15580050100139575,-0.14128700959890494
-0.15749923520726725,-0.14063693070258157
-0.16077892174002822,-0.1391461027336044
-0.16492833935576642,-0.13573133999013978
-0.1690432585471696,-0.13149562526455594
-0.17200618613274266,-0.12795831396185545
-0.1733836360772514,-0.12452178520752097
-0.17330514893383733,-0.12100739495337344
-0.17215392168053278,-0.11874106741089692
-0.1706253397327567,-0.11865592352614254
-0.16883488171562483,-0.12178315654301092
-0.16677588704684182,-0.12823454321028535
-0.1649354655110295,-0.13445983832136976
-0.163674042863755,-0.13665828047380302
-0.16340600923994078,-0.13473447815013584
-0.16444847468266424,-0.12949322875184435
-0.1662776516097949,-0.12247713127361518
-0.16820793649514462,-0.11647245658929896
-0.17004379538280767,-0.11188824549738878
-0.1716100145545422,-0.10819147922472856
-0.1729312660149219,-0.10556972666241829
-0.17419974063790708,-0.10366542536493036
-0.17507305877165882,-0.10339117187264478
-0.17516016348825114,-0.10622117367452975
-0.17442994810618612,-0.11224224568298698
-0.17282939704410372,-0.12142709153402824
-0.17049492930552348,-0.13334060374723997
-0.1677890427269489,-0.14664509540456294
-0.1649960702902099,-0.15998732725658846
-0.16243023621306898,-0.1720916679116968
-0.16039312405272885,-0.18223954434583942
-0.15899572756325386,-0.1907885675436351
-0.15812148025180692,-0.19947227440315662
-0.15756608751679466,-0.21022357936992592
-0.15725813704920805,-0.22308148187657859
-0.15711862638750979,-0.2368716018813404
-0.15700919469258842,-0.24911197570333568
-0.15682810207585887,-0.2567220411319617
-0.15637122833180434,-0.2591958664351744
-0.15549305134671237,-0.25723956518842633
-0.15435986487397632,-0.25183498765224316
-0.1531877864155659,-0.24470000150829951
-0.15206489045497365,-0.23559301620167983
-0.15110277648706857,-0.22333129885953637
-0.15035160801038738,-0.2073660275743149
-0.14980519938769127,-0.1869059583259085
-0.1496015489769257,-0.16257621844027328
-0.14983189685589005,-0.13613496279470677
-0.15037225718467948,-0.10917715209984444
-0.15107769113088357,-0.08340545914510389
-0.15182693316760196,-0.059209190064060724
-0.15245722993999164,-0.03559564132166697
-0.15286345839961551,-0.010694489818720818
-0.1529725879312798,0.01763461692962789
-0.15264977530528925,0.049481395620455074
-0.15183465825373,0.08335718222494759
-0.15063972334514503,0.11646595774137752
-0.14923908635247574,0.14543078788210498
-0.14782929792326696,0.16971125652295738
-0.14669145136055992,0.19038196596691423
-0.14615717814038184,0.20924134103573197
-0.14653529012692323,0.22871185633130206
-0.148068461167771,0.2481041494129289
-0.15083206581493766,0.26485958077376903
-0.15458981076474937,0.27602017015114555
-0.15891122574115468,0.2781180767072659
-0.16334442683897615,0.2709444671382064
-0.16723354884857558,0.2566955144407699
-0.16965515475242593,0.2386066745110485
-0.16978035323722915,0.22058020106690032
-0.16716324551797948,0.20276905640801943
-0.16190442767146418,0.18258434093446857
-0.15506771916294818,0.15588932859951687
-0.14805896876247798,0.11746559086525425
-0.14156044420802918,0.06623392094324701
-0.13603215223401696,0.0035640505426760435
-0.13169651847643152,-0.06851297203489518
-0.1284721166396846,-0.14577158551274258
-0.12699213036485477,-0.22517878845266825
-0.12787474811750718,-0.30282303263465504
-0.1309428394973699,-0.37033855534056487
-0.1358623212170842,-0.42355395444741095
-0.1418689829310641,-0.47051038692443237
-0.14765160813982062,-0.517505484338135
-0.1518688112269527,-0.5555286431209583
-0.15338415225451962,-0.5783995885213685
-0.15185504369176184,-0.5947427334126054
-0.14821292340778897,-0.6099728353709831
-0.14515624498677512,-0.6207950723429487
-0.14559148763058444,-0.6265648437249514
-0.1500142716294897,-0.6282447909708265
-0.1571710513751495,-0.6245221389656085
-0.16361095639202644,-0.6156308569534457
-0.16512469965668122,-0.6023955510139588
-0.16135461152822458,-0.5833730872241687
-0.1539336197294508,-0.5585683272342172
-0.14562205823525307,-0.5320606339050994
-0.14032101970242405,-0.5074950710442697
-0.1383183317244727,-0.4848607702623737
-0.13815678812167537,-0.46295354128318106
-0.13876304766505526,-0.438742055669116
-0.13817150305757528,-0.4082551521564073
-0.1367609657449847,-0.3716806411932503
-0.13622870774874069,-0.331479638303897
-0.13715177311911164,-0.2912323867876555
-0.14043022374728623,-0.2558071684227968
-0.14576042890118274,-0.2265863289218231
-0.15168984779464253,-0.20308721205328312
-0.15731643131563816,-0.18493965659234757
-0.1615261504471094,-0.17042666490930375
-0.16368127525999807,-0.15942051621827072
-0.16387649231479245,-0.15194967143322
-0.16217644609745757,-0.14527466265677375
-0.15892495602634388,-0.13711766392530123
-0.15433256533719636,-0.12673301633864278
-0.1486170426761593,-0.11477588719257317
-0.14261611324481402,-0.1060927953071815
-0.13721496268042857,-0.10406236198806824
-0.13316927922687544,-0.10206284820069729
-0.1310563813853673,-0.09414056695712582
-0.13062604254885082,-0.08491582007323054
-0.13133866427994215,-0.07642319372644778
-0.1331440696926182,-0.06177056467547991
-0.1358766580889607,-0.03866658328550699
-0.1391993957722561,-0.01493612484230843
-0.1428787899321213,0.003356510784077909
-0.1463368150003485,0.017849724461637607
-0.14907734990342483,0.029694556165382975
-0.15130664837365163,0.0386393045643018
-0.15324867598623917,0.04665504829297819
-0.15470753035309617,0.05385557770505341
-0.15542410601686515,0.059069391635118
-0.1548457201764105,0.06260032412988532
-0.15246175385985675,0.0646351831071109
-0.1487500412837076,0.06630766454117025
-0.14478299008990653,0.06950315216599273
-0.14209143405317531,0.07490303826168235
-0.14228433626083709,0.08283608809550033
-0.14558629564471218,0.09301167429824539
-0.15101539642995374,0.10363033900118561
-0.15634023374418937,0.11164754980020954
-0.15891199273237377,0.11524221166842634
-0.1581965612607339,0.11750203075450008
-0.15503143876150038,0.12156330414854608
-0.15143165716411133,0.12502915474136506
-0.15009277949386252,0.1268259702264054
-0.15113375996013548,0.13099341642492884
-0.15343822355613276,0.1385270121222153
-0.15575856758213064,0.1433831839353973
-0.1561716138868304,0.14071681432302924
-0.1547676292457092,0.13212373682824305
-0.1526398255716383,0.12007593794140355
-0.15019892924815703,0.10754566238165637
-0.14836018512177604,0.0992018506492019
-0.14729607153693078,0.09592871648314345
-0.14669323766064676,0.09597394475000538
-0.14724503702162092,0.09673980813681485
-0.14936539135223204,0.0946872216328394
-0.15283423508731775,0.09013587449456383
-0.1570106539616329,0.08570746452016655
-0.15978369501344344,0.08424263019743468
-0.15896524232451073,0.08923749480121837
-0.15437979352788353,0.10029286441480056
-0.14721935572625802,0.11429748961246279
-0.1406210650062624,0.1275455081930859
-0.13808291292061733,0.13551983050575062
-0.13933272055589363,0.13741020381199756
-0.1428003784910094,0.1352018433747959
-0.14737857050635192,0.13197648332478543
-0.1507546287508849,0.13189324175176492
-0.1517040086221981,0.13542918397155357
-0.15056741475453764,0.14082365160241758
-0.14860207438381856,0.14605311827217884
-0.147557506938864,0.14820568190240704
-0.1471573147067886,0.1477380579196514
-0.1470282043905708,0.14698161945572333
-0.14879626121417097,0.14759686265569938
-0.15347795785070253,0.1518524687423409
-0.1610743145117276,0.1597236144526967
-0.17084912011105605,0.16945396939984755
-0.17940028653234175,0.17971698646450968
-0.18289871409239752,0.18863086677176993
-0.18049286469962966,0.1955610515873238
-0.17288741578646685,0.20099285754788554
-0.16290857277531332,0.2051237568469661
-0.15457567204195607,0.20833806312923686
-0.14854723284782193,0.20982610310957758
-0.1442455094783459,0.2078634338421446
-0.14117877480004673,0.20087451797727615
-0.13786484046591424,0.18763276272714902
-0.13504013254691047,0.1691745856293185
-0.13414650698135747,0.14877859669908305
-0.13478670141268512,0.13167529935415945
-0.13611559871057377,0.12339142106109625
-0.13525033894786037,0.12552319276156776
-0.1300203495895707,0.1363199686771301
-0.1246049122226664,0.15033530357495659
-0.12299784600820562,0.16077318274978133
-0.12293307578012483,0.16687805347432638
-0.12288860487315893,0.1712985942952802
-0.12442143101655123,0.17900410289955526
-0.12743213908238762,0.19645041361173543
-0.13115728569404284,0.2227747900168981
-0.13554486395412882,0.25321261372444914
-0.13969007896551972,0.2823720147074222
-0.14241090363883338,0.3030371554409642
-0.14305735290591712,0.31376723181497235
-0.14146174095712716,0.3166356208686731
-0.1387655684418182,0.3132603224501012
-0.13646320157183103,0.30725966562991663
-0.13471830220506387,0.2996524269219795
-0.1333602517618059,0.29035425594295233
-0.13201025068963973,0.2823625244741783
-0.12991523275579825,0.2778798617388041
-0.12746935846966603,0.27819059683606273
-0.1254527854648905,0.2833840060870954
-0.12414860131848758,0.2883142691548856
-0.1240061560031041,0.2874632913552018
-0.12497276880468158,0.281077269658647
-0.1265407795427079,0.2715455967875014
-0.12844452369212903,0.2636370089628177
-0.13032075274414678,0.26319043447494944
-0.13193305089406357,0.2689429737395895
-0.1333429940723633,0.27706099168220105
-0.13467281974393566,0.2854994042501534
-0.13609973419872187,0.2903511902420313
-0.13758804264796692,0.2896769602126024
-0.13897162147979328,0.28510415612072726
-0.1401260741467547,0.2807092139177422
-0.1408805324216281,0.2808579643314395
-0.14123977052167283,0.284100967740618
-0.14126917869145678,0.28647127960467755
-0.14084892326269424,0.2842639793821618
-0.13991983386971557,0.2739074489431917
-0.1385515528897944,0.2590442773564252
-0.13689270533015663,0.2456432947488016
-0.1353490577466972,0.23441103286578358
-0.13439078633972706,0.226854191041934
-0.13423794899285407,0.22488821972363812
-0.13500120989455094,0.226953422512228
-0.13664604084042944,0.2300186351975531
-0.13896723615898118,0.23082747185625557
-0.14185400968614456,0.22747068697471676
-0.14509249500389804,0.22034904337291747
-0.14817319277535299,0.21349094700925586
-0.15057872570511294,0.2113615350604543
-0.15188707185853972,0.2125746997320006
-0.1518018618618379,0.2140145222043205
-0.15042068519315294,0.21320537613393123
-0.14800828670830152,0.2064521652444112
-0.14461302694735012,0.19352864787787624
-0.1403727603654141,0.17687415874236037
-0.1355993633725903,0.1590624787669555
-0.13057679038320083,0.14353210944502412
-0.1257062415028271,0.1310299470815311
-0.12132311993397313,0.12033081933166141
-0.1173562802955622,0.11014438821545258
-0.11368457368237095,0.09845695433856756
-0.11044760317725959,0.0855043903879932
-0.10779804632710661,0.07283861603422973
-0.10596780959162747,0.061349639201544376
-0.1052523563518039,0.05233620645911406
-0.105648080610516,0.045631957419375827
-0.10709036383950742,0.040066793900656913
-0.10967071303000905,0.03525867566640435
-0.11333873675690215,0.030535630703584084
-0.11786966949415177,0.025597737823965457
-0.12287464588309349,0.02068917716125981
-0.12757672649251925,0.01553365994429677
-0.13111397507057504,0.009849623404062473
-0.13298169735143933,0.0032395726614887392
-0.13287471950599414,-0.005017697522306516
-0.13078264077272903,-0.015493760161436443
-0.12699988334008874,-0.028539177553997135
-0.12172010689808567,-0.043933559115644165
-0.11537348155609169,-0.06074177794860686
-0.10892847062033521,-0.07732529019671316
-0.10338367590692164,-0.0918394154356243
-0.09953044454181466,-0.10330473336708594
-0.09788176864129232,-0.11142329716203238
-0.09818731691182216,-0.11668623256701446
-0.09984787613939354,-0.12011754319785985
-0.10265967613161406,-0.12184869042284266
-0.10621742176163453,-0.12193745929334175
-0.10972090258614015,-0.12100209298805821
-0.1125016848817968,-0.11956002991293828
-0.113920357106842,-0.11869717500933186
-0.11374301610840831,-0.1196294579949089
-0.11291745022895962,-0.12263599222434568
-0.112589351774178,-0.12758299466898473
-0.11294577006956716,-0.13383925406112734
-0.11384377284100361,-0.13962110584501353
-0.11460975383608184,-0.14197973815103374
-0.11425939112580513,-0.13988045265525703
-0.11300683157189538,-0.13847038235843465
-0.1114206843630364,-0.14161652762247487
-0.1097605324210612,-0.1430514226868455
-0.10852983564928477,-0.1383271206893082
-0.10764665615640727,-0.13405681653167364
-0.1066549041365683,-0.13418469832000107
-0.10545502338192235,-0.13353062804166485
-0.10385975741429582,-0.12942236388620687
-0.10183754564181163,-0.12478254100735622
-0.0996499421643739,-0.1210560211361137
-0.09751183018791594,-0.11857566832057913
-0.09564894289695156,-0.1190050704803894
-0.09410084198140194,-0.12278222067938749
-0.0926933920432082,-0.128947048579689
-0.09116578721762338,-0.13607111665674754
-0.0892043178535549,-0.14240673074656282
-0.08673901105979,-0.14756491089534554
-0.0838503097264749,-0.15211679974741196
-0.08063867875859104,-0.15713374206673797
-0.07731592329599818,-0.16404353816571712
-0.07399509257764766,-0.17260261856503645
-0.07080020730135693,-0.18163312915421356
-0.0680784635285095,-0.18983281079642791
-0.06613983307394478,-0.19548734356837358
-0.0651458405186789,-0.19824817922352383
-0.06510775323360096,-0.19856113841489054
-0.06565473525724692,-0.19665593472209006
-0.06628849679677756,-0.19318343026727383
-0.06680850747379678,-0.18819104075740947
-0.06708511521180696,-0.18140532911896332
-0.06706574381951685,-0.17321225921578612
-0.06681448069567984,-0.16396557559730598
-0.06613389827385373,-0.15419720132432474
-0.0648247746042493,-0.14464387483490088
-0.06296801880854178,-0.13552622397978323
-0.06076753846707891,-0.12714638647684176
-0.058753251917378416,-0.1203852572319313
-0.05784463096561216,-0.11638905201599328
-0.059232178739715785,-0.11686397192906
-0.06388934865734854,-0.12244124565173638
-0.07171105763819237,-0.12995374831489756
-0.08136773507345749,-0.13634516162911875
-0.08988678879011207,-0.143054767885127
-0.09409151525099436,-0.1506246903039241
-0.09335433243563705,-0.1553521151838172
-0.0889428498788906,-0.1559509777797313
-0.08438787925974607,-0.1569385925307268
-0.08404276302532163,-0.16191123741150812
-0.08838025057900087,-0.16953625231269537
-0.09577734831035024,-0.17798668128983086
-0.1033008278771677,-0.18512696381996405
-0.1068903889325417,-0.18748866298661934
-0.10645495721461974,-0.1843860051713104
-0.10384979119676857,-0.17718131448324795
-0.10073087788473632,-0.1681051343404635
-0.09975023241121003,-0.16013026520206505
-0.10084051756621894,-0.15319371542138913
-0.10241810577827982,-0.14572472480588308
-0.10396005386501096,-0.1364604792757359
-0.10434750120548816,-0.12364962165655106
-0.10358431176731622,-0.10809963327071376
-0.10256152753350518,-0.09254622657037159
-0.1010153063477103,-0.07999486665883984
-0.09892470412212762,-0.07325463599409904
-0.0964538575579216,-0.07109279474097575
-0.09366537934906807,-0.0714781511079888
-0.09175675387057951,-0.07626278093812926
-0.09199972768577973,-0.08591985672704251
-0.09456869282826523,-0.0974137078577192
-0.09908579753310544,-0.1088232909025633
-0.10407473385845482,-0.12030168400362043
-0.1076638982353962,-0.1311234454691335
-0.10956660967950456,-0.13884833229593815
-0.11026104842367217,-0.14188606245695246
-0.11082419938881821,-0.14061938304714094
-0.11282709601984274,-0.1356483705909005
-0.11624001707476886,-0.12748407402549194
-0.12031800149718413,-0.11768906245654652
-0.12444257518507329,-0.10864955389714002
-0.12757178707400774,-0.10260235435090402
-0.12966100645165451,-0.10106058349021539
-0.13115364695187273,-0.10419082376089846
-0.1318908926322794,-0.10960433776635395
-0.13193279007617845,-0.11424355767724946
-0.1311545224355599,-0.11743699356929667
-0.129250565651388,-0.11939938386941756
-0.12657234390327504,-0.12123292864428149
-0.12352878138779995,-0.12487752146382884
-0.12026755831500237,-0.12981218989030116
-0.11697995332444706,-0.1350029532639878
-0.11356491549911185,-0.14086911459874618
-0.10982570995483462,-0.14567856473683533
-0.10599507868037177,-0.14411832183547676
-0.1024128739283817,-0.13433999000397592
-0.09945046684926075,-0.12535238683724145
-0.09756826709177363,-0.1251495118830075
-0.09689307758602615,-0.12860375007408553
-0.09735671278979503,-0.13118120335359776
-0.09887344835595673,-0.13570657927512475
-0.10120562972307785,-0.1417862628807174
-0.10418663781196735,-0.14701472411824368
-0.10765109667723348,-0.15189221004022674
-0.1112439222103286,-0.15769880570135086
-0.11461463887548545,-0.16516748808221068
-0.1174414562196831,-0.1737622655811966
-0.11946315245669334,-0.18273681853775475
-0.12069319452546362,-0.1922678674161471
-0.12126670222302005,-0.2017299214048991
-0.12124747376792147,-0.209232314455194
-0.12080527455677709,-0.2120783881525195
-0.12022523590162852,-0.2059160899306124
-0.11978817689300487,-0.18821489801059976
-0.11981463187812853,-0.1636237406855756
-0.12053128519112585,-0.13728890776108785
-0.12185522217539983,-0.10779867652268539
-0.12358656946658059,-0.07620578890239979
-0.1256016734679764,-0.05086734888036768
-0.12764504764333476,-0.036644232656236814
-0.12930126739049777,-0.02931924264802102
-0.13018621477697434,-0.02545535869607183
-0.1299772507386102,-0.027915878711630992
-0.1285607960785322,-0.0377071989719934
-0.1263181230334683,-0.05214885796366523
-0.12381386288526788,-0.06969037622348119
-0.12137766539332066,-0.08817143222480782
-0.11941077091656876,-0.10487462056448343
-0.11841820360802359,-0.11989275911193233
-0.11879061840133519,-0.13385687842777141
-0.12096851953016645,-0.1458662240006291
-0.125154530739947,-0.1556488198810242
-0.13086993217623683,-0.16343594514753337
-0.1374408170717896,-0.16921693272068547
-0.14443636667622967,-0.17387377804773743
-0.15135474030958737,-0.17812129996363726
-0.1577406342245704,-0.18102538814335864
-0.16320597676507428,-0.18181857615971406
-0.16698172292681604,-0.1812582385334617
-0.16833073606420196,-0.18059438935617536
-0.16695387927088381,-0.18198151281049868
-0.16265174616861144,-0.18730781974582822
-0.15537066702837282,-0.19505278615274912
-0.14537911490144947,-0.20107973188096398
-0.13311933230158424,-0.1986222103020624
-0.11912025018817242,-0.18329809890248763
-0.1038816412578608,-0.16309754694224549
-0.08769203560632777,-0.14717958786850166
-0.07041264017632225,-0.13337375236794388
-0.05183940318883416,-0.11944815671921728
-0.03228663194137642,-0.10468431775023604
-0.01224575908522306,-0.08664451272737698
0.007681259405578571,-0.07088542735138732
0.02674169200250208,-0.06266710270559282
0.044625236244377885,-0.054547487582130086
0.06114309824957048,-0.04205966571922969
0.075844844275195,-0.03417614832670438
0.08848513812719204,-0.03697871329292094
0.09903376077917826,-0.046382000666868005
0.10768664605772932,-0.05966031411366665
0.11526434352851885,-0.07640372958818978
0.12268971624437956,-0.09356172317506212
0.13029297790471583,-0.10965438052627978
0.13804555817776515,-0.125411441876786
0.1453467708146326,-0.14171920018852271
0.15108384863397442,-0.15911068242742618
0.1543627136716151,-0.1744961630124228
0.15392636928799563,-0.18442465240220038
0.14769459461083748,-0.1896261273746653
0.13366484951646992,-0.19034386354376945
0.11033472481348072,-0.1846517161885745
0.07690286282009479,-0.17304497167672292
0.034176026278110554,-0.15963268500454636
-0.016134030842326664,-0.1479946613695615
-0.07266517150215786,-0.13830827930027145
-0.13329435782070687,-0.12961720820574787
-0.19474692042479785,-0.11973558452930363
-0.25371179767171587,-0.10545576013772108
-0.3069458565155507,-0.08664886974791279
-0.35194326301335704,-0.06509302886418902
-0.38845323435584056,-0.04352858467343794
-0.4170942935957688,-0.025420395804857887
-0.43755274533415967,-0.010667786504805973
-0.4501613785422098,0.0027442643200258493
-0.45617344689574196,0.01693719345799832
-0.45679102811280253,0.03475927038267042
-0.4538906919563487,0.05606082012621778
-0.44892723463063167,0.07860728606307044
-0.4410814559876788,0.09991589964971745
-0.4293110635631097,0.11682271240970497
-0.4142372907576006,0.12877873272043774
-0.39671267358555856,0.13715269652588002
-0.3781587988153496,0.14371604506589408
-0.3604928378552902,0.15084687940127914
-0.34394941331019296,0.15829830149083712
-0.3285022726604166,0.1641167851198962
-0.31519437485842605,0.16619022840652814
-0.30453666641691823,0.16174788132423717
-0.2965949115497542,0.15017891961419308
-0.29109843950872033,0.13220847155369314
-0.28624055534305004,0.10825346849540875
-0.2799177876944385,0.0793338486468758
-0.27133564113344955,0.04525721196178673
-0.2602227182062457,0.005138882446480145
-0.24715550068192516,-0.040990716976896595
-0.23335764302724996,-0.09297837152949855
-0.2188841479814945,-0.1495653959923687
-0.20363582936014854,-0.2083284808145151
-0.1881016636629301,-0.2666432400868267
-0.17257446299309664,-0.3216420666279459
-0.15796319345457285,-0.3712711549870029
-0.1453256087140991,-0.4144471663221645
-0.13469608305647046,-0.450874837606331
-0.1259177196368825,-0.48099922019053726
-0.11885805706775333,-0.5048536011562242
-0.11281715781853388,-0.5228127379625163
-0.1067910319441336,-0.5363879336624023
-0.09981478300825579,-0.5468575502944146
-0.09116794540764944,-0.5547762912126223
-0.08075148874333433,-0.5594903636956547
-0.06961109218357495,-0.5575010917532769
-0.0591297676066638,-0.545270672749246
-0.04975142418347872,-0.5233109751318034
-0.04172220566079535,-0.49481755413690043
-0.03520804684303833,-0.46653648754851
-0.030025502068246685,-0.44436789654061853
-0.026675206042841786,-0.4232199447686217
-0.02556911874928412,-0.3967462216012381
-0.026026414932072247,-0.3671990957668899
-0.027249063531337245,-0.3380624421676223
-0.02848804501373554,-0.3170577241593607
-0.028739104924279675,-0.3099480823401081
-0.02733395858559847,-0.30198079820126184
-0.023899235876345903,-0.2796460356382249
-0.01812479858001031,-0.2540020255471318
-0.010459864379638776,-0.23348198487446792
-0.0026219509794081744,-0.21092161025546483
0.0035636500002528835,-0.18533896816673542
0.007431795005332876,-0.16284950928682002
0.00917668785950958,-0.14520328316225087
0.01041041508654179,-0.13214310038800517
0.013213713905627448,-0.12475176223348333
0.01755509634309639,-0.1240067440992303
0.02254422655147815,-0.12829491516280825
0.02695861597073159,-0.13160401402569116
0.029052462659173477,-0.1290756766241868
0.02900187815131932,-0.12350555637382243
0.02791693972725072,-0.11813389644216171
0.026577090013796628,-0.11118543367235728
0.026147094558616024,-0.10248578875355942
0.026603931922571863,-0.09369320999019792
0.02701946168793796,-0.08385970779522717
0.026641068637779288,-0.07000167105021442
0.024520499643390255,-0.04968057580673639
0.020660093922071462,-0.022969313170509528
0.015916580958884374,0.008171505597615135
0.011346758732292302,0.03916623130366092
0.008211911783160603,0.06461155345847266
0.006733108469861493,0.08335417550146323
0.006368227265102635,0.09576289014745927
0.006319776543690093,0.10195052950810564
0.005504056507079199,0.10358742872689389
0.003866387322435597,0.10088833715790353
0.0019626280545744393,0.09353762703637153
0.0003436094021010263,0.08309656284795947
-0.00020086579582474207,0.07119781035235057
0.00026542260783152526,0.06018131931797701
0.0011689737310136975,0.05279675348385969
0.002124103453682718,0.04999030261827264
0.002567420578951432,0.052261297025075634
0.0024505911202747344,0.060513779302650963
0.0021104219299597376,0.07395346408902052
0.001691320981168095,0.08925274582137663
0.0014455257979628059,0.10303544113208116
0.0013756629687088743,0.11406261088953792
0.0012474713942947024,0.12233992626560647
0.0009729263231484369,0.1297969732258244
0.00044189931282360143,0.13908546512359193
-0.00028510080617239684,0.14946436807555202
-0.0009689705943342879,0.1583663868667237
-0.001421539290010396,0.1619681379556134
-0.0014641996336984167,0.15614366900544716
-0.0011166121551479907,0.1419495062858726
-0.0006199922224851347,0.1237710129331659
-0.0003508912698148369,0.10781340551263212
-0.0007022054899042995,0.10139299008729998
-0.0017083158831212627,0.10631284286478873
-0.003093585851957891,0.12017823356248727
-0.00428036725921773,0.13765117618990064
-0.004607273331463041,0.15128395335267172
-0.004013813077693198,0.15927925978256677
-0.0028315271603578033,0.16317938814701016
-0.001702142469965894,0.16595990022697674
-0.0014205285496326234,0.17213574653614055
-0.002013624989597882,0.17988060971899558
-0.0030564805411565934,0.18512383554599304
-0.003918868496118926,0.18658012433722168
-0.003638187848688347,0.18206397576935776
-0.0016957873394707963,0.17226602171361532
0.0023370035270899345,0.16070286404534695
0.009302292894434626,0.14995529407838468
0.018427313121800397,0.1428487869157321
0.025341745270432887,0.14016540180493045
0.02708156289627684,0.1399797966876467
0.027949159238925398,0.13887818155116813
0.031420431265895735,0.1330273115759421
0.032943809069634795,0.12217699791075416
0.029952056759206164,0.10884460157798274
0.0270320030469615,0.09768908388826754
0.027017249615964144,0.09437084237753231
0.028634408553068445,0.09967399831427189
0.0312386276477352,0.11167200680161471
0.033606384083355645,0.12749298335143963
0.03332259513185569,0.14275619099329576
0.030105746550125052,0.15703353231294992
0.024992749643049962,0.1717813778623475
0.01970497730392188,0.18736812054594856
0.01655012829752071,0.20484798747722532
0.015642791944877926,0.22254333739787338
0.01601909620066222,0.23695851918047117
0.016794324762886968,0.24570648062853576
0.01652195841733955,0.24642896596137068
0.01525916412004512,0.2390935587513803
0.0139293037444844,0.22632334221422074
0.012958406098251026,0.212134900004805
0.013087971087965422,0.2017688949181713
0.014289710449425218,0.1990638528386506
0.015950890636843202,0.20495150301176562
0.01797655782523405,0.21540984991218923
0.020130920268111602,0.2250449490510519
0.022363730469946056,0.2340219676475706
0.024896305320156978,0.24247820000675946
0.0275435420071534,0.24720810496573323
0.030094688827371735,0.2471986280262323
0.032389909244485544,0.2430216181012402
0.03413718273961877,0.2373425426586627
0.03519998577991485,0.23951578368249068
0.03557467642817977,0.2547085488729259
0.03536169640936704,0.2694493599821015
0.0349406765419045,0.2716071570248027
0.03501603652031483,0.26993775846390944
0.03624222474661335,0.2719758733967589
0.038717363299633926,0.274723027203567
0.04200144573631348,0.27839964862040584
0.04490329148418145,0.2803660641339733
0.04604726609555875,0.27623872256371806
0.04514365152598203,0.2731603281510807
0.04255500818134125,0.27743908642105153
0.039273047566945066,0.2829963675443499
0.036692737710333316,0.28596288724803015
0.03501188996360035,0.2905774904281793
0.033946524879715625,0.29846413092489993
0.03331497340912996,0.30794199432735103
0.032618322746304974,0.31886533322599836
0.03215172355836245,0.3303235947325312
0.03253347276796021,0.3395124139613765
0.03379902071411567,0.34317608523694687
0.03602633205453689,0.33862390456456865
0.03898005433548921,0.32578062344201303
0.042025543037821876,0.30768447990854725
0.04470246045154939,0.29135765993741625
0.04653449233708493,0.28285507430049883
0.04716805670552283,0.2783797790089471
0.0465992462036971,0.27336359791358056
0.04510725981341881,0.2714293060276286
0.043116963786881346,0.2732121612590754
0.040854340520720914,0.2728430713655254
0.038503224700503956,0.26875787896689984
0.0363145941013703,0.2675618092481589
0.034491874589981514,0.2741047886249313
0.03345165057349748,0.28456113590066223
0.03359103389830542,0.29431005597177845
0.03492480686030527,0.30013970045378285
0.03735629081381354,0.2971885386802963
0.040716531131244696,0.2845975963717013
0.04458591230627284,0.26561965623249645
0.048397377322438595,0.24547659704805155
0.05157413114435133,0.23049813319961554
0.053654842541674665,0.22223563276549183
0.05446026581530819,0.21882198358682312
0.05432581885600832,0.21634561505580785
0.05380907310834641,0.20922623687064515
0.053197400205153775,0.19700080578233747
0.05285768227576449,0.18146033143933965
0.05334191789484616,0.16350870664689052
0.05501197298482591,0.14651958520904315
0.05808231288922792,0.13359354699167514
0.06229428795274798,0.12546902187103917
0.06631003799541883,0.1198150046776924
0.06868161894693171,0.1126002226509834
0.06904811273744094,0.10166934719488883
0.06770591376555254,0.08685694167320725
0.06595837317344427,0.07289065667458215
0.06551187992334091,0.06447174016643752
0.06645271076147155,0.05653760868167089
0.06819554176275738,0.0442549000394331
0.06995952616025483,0.03099579096077978
0.07051248851233888,0.01825217781338738
0.06991694952865964,0.003974561104500083
0.0688139066008205,-0.01125219903616731
0.06741652369785066,-0.02531080108424467
0.06622707682576179,-0.03701785512981484
0.06518434163426737,-0.04593510680961467
0.06384326000485728,-0.05186061044729088
0.06228713445365824,-0.055126972345871175
0.06052546640840807,-0.05651595071775558
0.05860679396684546,-0.056250806596651874
0.056769781971445644,-0.05454464398895887
0.05494074794381417,-0.05213817772149085
0.05300654583736501,-0.04969563242306581
0.051000081995249996,-0.048045002371441436
0.048897055808492206,-0.0479147075020523
0.04675557264400702,-0.049107565021722366
0.044675573259698544,-0.05122391816198602
0.04260881255243297,-0.05429929208451553
0.04047071335356058,-0.05824167635691671
0.03816327197968295,-0.06296702382367603
0.035553455976524526,-0.06848428263344342
0.032605707716811726,-0.07433234861282581
0.029350207911207054,-0.08006198332171323
0.02584479961849375,-0.08573958625564128
0.022211684150400007,-0.09143675311251427
0.018567860928253844,-0.09713194584481041
0.015066891000711164,-0.10295141016391292
0.011969000234111333,-0.10896953517055402
0.009463894512988838,-0.11507110977460502
0.007505905319727932,-0.12090981302437598
0.005783669402157287,-0.12560338250987996
0.003558119009869135,-0.12738632705841418
3.8701572510878895e-05,-0.1257016775113582
-0.0049643522070359795,-0.12410537817461566
-0.011207638641323847,-0.12534065853406978
-0.017896862684008946,-0.12576503625962687
-0.023993429312720846,-0.12286323341851994
-0.02927213975702293,-0.12084334071333283
-0.033871320223818155,-0.12215962393387961
-0.03807079974513356,-0.12364563103480165
-0.042435812209249066,-0.12355832770817113
-0.04691854464210793,-0.1233716145920472
-0.051309640671313286,-0.12354361358855939
-0.05584511917732571,-0.12379376043378532
-0.0606323261582945,-0.12459725969236293
-0.06583783500811367,-0.12572120876055173
-0.07162860151402152,-0.12621650108836457
-0.0775761045830024,-0.12508467492678185
-0.08316661337764834,-0.12203359240016337
-0.08825496810894562,-0.1193882051804168
-0.09272904433233509,-0.11907301896958453
-0.09667072904611197,-0.11864510670074947
-0.10029642696077315,-0.11633933199735422
-0.10343344237510393,-0.11487444073327241
-0.10584884829804307,-0.11582469591945933
-0.10748334847882401,-0.11721752398210787
-0.10823356979272532,-0.11802343698047954
-0.10818548159596034,-0.11908320904328501
-0.10757637835143753,-0.1205107625698186
-0.10656646209665523,-0.12193831305117149
-0.10536432002321856,-0.1233920353839295
-0.10417226364215892,-0.12444740438069303
-0.10311057660817598,-0.12420393155933221
-0.10227776614189918,-0.12163780059760579
-0.10176342026561319,-0.11598713663330197
-0.10172240530503711,-0.10774616632026104
-0.10234536335578175,-0.09871406273436621
-0.10381381211410066,-0.09221360089657467
-0.10630069442435544,-0.09146193331422321
-0.10987050904663716,-0.09636820259998852
-0.11451570372611153,-0.10519654969766717
-0.1202168666674032,-0.11564317555293532
-0.12680775250430454,-0.12422509327654092
-0.13389698562492067,-0.1290312346288957
-0.14084135595171882,-0.13019183098408937
-0.1466216819405337,-0.1300754861986083
-0.15016534586347893,-0.1316117878872671
-0.15084671583501005,-0.13363666276059674
-0.14841857854188215,-0.13378104721114928
-0.1431852474812407,-0.13053128425031518
-0.13591610498156875,-0.12166619858083075
-0.12726870273350846,-0.10747899925378179
-0.11825933990623504,-0.0901453644267492
-0.11061467516521135,-0.07154689193643299
-0.10591805605750758,-0.05426457676908264
-0.10509568223947889,-0.03971937254262053
-0.10816876977346497,-0.028260336764674775
-0.1133567465988574,-0.020485355803055702
-0.11834554805315686,-0.016353692134210472
-0.12240299309839424,-0.016002902460283117
-0.12538255064647888,-0.019233147957767708
-0.12779141877466837,-0.023999060095867573
-0.13070270801505465,-0.02974753689391051
-0.13345025031960842,-0.04087903203219201
-0.1350004847079296,-0.058987665854981934
-0.13526968232077208,-0.07446271748162513
-0.13398480227890938,-0.07941992032482738
-0.1316159586182638,-0.07923378837770509
-0.12922431740576454,-0.07893468382642148
-0.12722065037568636,-0.077367735076571
-0.12599953537736044,-0.07656246982125185
-0.1258298820009777,-0.0795129373922632
-0.12627483840345258,-0.08503916369080332
-0.12634596159834535,-0.08856412388924914
-0.12505758105271153,-0.08562616299152284
-0.12227869186590734,-0.07631360120143359
-0.11865947004234156,-0.06246822351067344
-0.11583008425507324,-0.04650509334763465
-0.11560932690271068,-0.032411995398308205
-0.11799889733162346,-0.021358835032482402
-0.12193354323020689,-0.013569484781821087
-0.1255272896234138,-0.011264597828485262
-0.12634395537482435,-0.014419906200662481
-0.12385442225162006,-0.019531671471157197
-0.1185517175022738,-0.02422425980387194
-0.11115951926770878,-0.030563273108133206
-0.10376469158732458,-0.039370522298275784
-0.09885554339928179,-0.04523536898983085
-0.0975097396021181,-0.04503873478688878
-0.09735994798468034,-0.043874588508960574
-0.09581558188263452,-0.04605299096601881
-0.09457984131353421,-0.05045599200539075
-0.09501720825698001,-0.056873550523578335
-0.09554841548579088,-0.0660323189859357
-0.09544471937521676,-0.07724764476671754
-0.09437013670997534,-0.0917372033306738
-0.09173428105527591,-0.11031354271496047
-0.08896645889525392,-0.12935683713896187
-0.08783687014601302,-0.14494716294246895
-0.08825752844329642,-0.15527473940420516
-0.08985728383399079,-0.15887103106478698
-0.09192416025882584,-0.1566027577072339
-0.09319028228994061,-0.15166125224222457
-0.09368306813427507,-0.1471840643914884
-0.09393223911286118,-0.14513612349726845
-0.09416313644870689,-0.14279369077196685
-0.09492016562815322,-0.1374766603672838
-0.09613980342830634,-0.13401071228620975
-0.09743333766741423,-0.1359055005979172
-0.09895160661969367,-0.1390807865633314
-0.1007415255366276,-0.1407103482670234
-0.1028528149538206,-0.14175219169292086
-0.10545760880434592,-0.14210018642855815
-0.10831960843550753,-0.14210354821739235
-0.1110710485825516,-0.14318349285791268
-0.11342020166156966,-0.14462271155947834
-0.11488560449804186,-0.14488336539666496
-0.11487989703304419,-0.14268270742450082
-0.11294862347986373,-0.13659531795606583
-0.10892444294726066,-0.12715622815025399
-0.10308155583373464,-0.11648481121991887
-0.09639363201347104,-0.10745984620686105
-0.09000662149953603,-0.10278836894864693
-0.0843784382036568,-0.10163674059950736
-0.0795802517766469,-0.10168134680332971
-0.07520060711256395,-0.10157163634976427
-0.07059765040294623,-0.09902017737948628
-0.06612494692536747,-0.09223667647360631
-0.06253068202211497,-0.08215845266693801
-0.06053270162358995,-0.07341959422979381
-0.06095293471946671,-0.0708921156104231
-0.06360000920823779,-0.07424063244217902
-0.06757164249106123,-0.08128777636602676
-0.07177054514138392,-0.08938557693350717
-0.07487065083477645,-0.09451961364946945
-0.07641373256524434,-0.0964207262445555
-0.07667767201633864,-0.09707952496045465
-0.07638522535202044,-0.09836282374146259
-0.07666026442423012,-0.1020232287027228
-0.07785937643514515,-0.10456610833945072
-0.08006179834585934,-0.10191407939531906
-0.08362199106303439,-0.09636127784444823
-0.08825809089261342,-0.08929527245834847
-0.09307856412866429,-0.07808742913821656
-0.09606573564604644,-0.06296263695627925
-0.09281023755168885,-0.048574565868827815
-0.08125540169816109,-0.03853763228860165
-0.06804473459249917,-0.032629445844465116
-0.05984070480627354,-0.02978928930498771
-0.05442401675509323,-0.028090651188728423
-0.04979938144802604,-0.024543040794820753
-0.0472994672059977,-0.019037658452749222
-0.04608221861889384,-0.013478996632601794
-0.04651510077769811,-0.010882740721002253
-0.049118796578808376,-0.014917468464138238
-0.04921357338437578,-0.025620770574648885
-0.043947384697152515,-0.040957169275953706
-0.038949024398056614,-0.05837152619255627
-0.03899083500785246,-0.07437897553163611
-0.04148279622875652,-0.08856111835627492
-0.04428396370218048,-0.1023849019606097
-0.04723942486224994,-0.11729795263813286
-0.048441282571709925,-0.1353940673237312
-0.04767405915158491,-0.15612086220034793
-0.0463932896098388,-0.17712305330806472
-0.04534937885116528,-0.19607689507305287
-0.045589555370289865,-0.20995187390606518
-0.04726578367417698,-0.2175347531923295
-0.04962391716445767,-0.21877967619196526
-0.05222727907583282,-0.21311279008535963
-0.054406026559907325,-0.20060056474668345
-0.05596250595887518,-0.18077175649923766
-0.05711403741779299,-0.1530497178448573
-0.05767623696082164,-0.11845436502894897
-0.05755378550080766,-0.07850443555876033
-0.05651966584573609,-0.03519717839149047
-0.05424588769357104,0.008557968585237535
-0.050937350952986994,0.04976567771627328
-0.04691529183717508,0.08579289499162726
-0.0424094952951125,0.1150800752096021
-0.03781741253317134,0.1379567207929524
-0.033483084218788116,0.15746032227992734
-0.029698874844829935,0.1772924347980107
-0.026878194425409757,0.19845174253599832
-0.025305097638161418,0.22028135576694793
-0.024963708075593543,0.24000153908178054
-0.025733443656277055,0.25357287898318376
-0.027478048415317025,0.26032322195723123
-0.029907133316311365,0.26030537846709956
-0.03259670014798047,0.2522734719323491
-0.03510614255980865,0.23602498549931095
-0.0370022840652452,0.2106015591230841
-0.038009940227351754,0.17547790260482152
-0.038247368789367214,0.13381953425429272
-0.0379769858138697,0.08893460951298703
-0.03728035709318222,0.04152453458362236
-0.03632359359443586,-0.008827326111435987
-0.03540005176127195,-0.06530919869429762
-0.034759513183171296,-0.1298023511402346
-0.0347470885904246,-0.19455936954068487
-0.03558681830566529,-0.25240720134944733
-0.037032347484443104,-0.3072835918453218
-0.03873952889333323,-0.36195315750834983
-0.04059337175153742,-0.4125461658870627
-0.04244522584538108,-0.4575259461371908
-0.04417836137769115,-0.49680602969313686
-0.04575568302789771,-0.5290295663580323
-0.046922741502043924,-0.5552945320044731
-0.04748496713086461,-0.5767939602860044
-0.04760572421362414,-0.5909516451604653
-0.04746998622280678,-0.5957347188728964
-0.047155397515623546,-0.5924546451210123
-0.04676446720622317,-0.5822953663537229
-0.04626929023464037,-0.5659045931039264
-0.04558686866969367,-0.5448440337987774
-0.044831865498069494,-0.5200514816848296
-0.04409010278065725,-0.4917805334131246
-0.04327516299119767,-0.4603268730672158
-0.042316961090381584,-0.42592715111245744
-0.04114710887709469,-0.3896900214478543
-0.03967837814627017,-0.3533434209420139
-0.037935937677981785,-0.31874904284923206
-0.03597191865762169,-0.28784174286160036
-0.033751197681404985,-0.26147728441863977
-0.031276902335956,-0.2396310689753729
-0.028632270166758053,-0.2217307429525096
-0.025908937640603463,-0.20668693200887375
-0.02323566071664632,-0.1941196946531172
-0.020774988315395142,-0.1839407646559339
-0.018665890042724242,-0.17586033834828915
-0.017045380041618007,-0.16938135868085574
-0.016058351701753276,-0.16246014026742006
-0.01579900200161539,-0.15188821099460262
-0.016276661317433168,-0.13384864000738117
-0.017453831057700146,-0.10593582949474464
-0.01927560948213037,-0.07140133530138516
-0.021630559013109694,-0.03606879059747983
-0.024346096722139544,-0.004928860649631228
-0.027231233644533996,0.018705370194065582
-0.030092540009015265,0.03974150371556509
-0.032775048356200924,0.06294066722316619
-0.03523667413586377,0.07958821528385225
-0.03747076229778587,0.08406000235092566
-0.039397153682045695,0.0865312774499366
-0.0409494751490397,0.09352635353396492
-0.04209261925476652,0.09862435962126756
-0.04271613966357289,0.09885760227767458
-0.042610471455868486,0.09969579331412677
-0.04138593868457211,0.10315122688996008
-0.03831727952844374,0.10602526332298695
-0.032818072575259816,0.10674193220185003
-0.02509858358267957,0.10511316299705535
-0.016092830381839823,0.1000901911080847
-0.007720785211158453,0.09172906478610734
-0.002170587358342111,0.08106785085915635
-0.00029528126118155126,0.06838918289852586
-0.002092668364816843,0.055067532751982014
-0.006654795393286635,0.04492663845901234
-0.012386510260401837,0.041654546463923664
-0.018895913219747814,0.04697703510872932
-0.025997485134223952,0.06100751353061241
-0.032876038204130736,0.08066929806674089
-0.038970334451758466,0.09882849775090435
-0.043147918093026975,0.10481424049413397
-0.04424518723410617,0.09390051583029164
-0.04242075532484055,0.08187185186935245
-0.038162208920455624,0.08407333717555612
-0.03191531854001024,0.09062412699996716
-0.024779647709811222,0.09269777231318024
-0.018180536905395287,0.09583453637918177
-0.013425076070799406,0.09969454525683383
-0.011511998483253356,0.10130409958985884
-0.01255455116728116,0.10270005776488639
-0.015012167894836342,0.10467848220683408
-0.016963038480094075,0.10709201955645137
-0.017957725468988394,0.10983214056703158
-0.018116153097997172,0.11306576438025771
-0.01821327362366064,0.11994765018369553
-0.01947937027782231,0.13181418289167002
-0.021346136823164476,0.14256259974776112
-0.022705294097082915,0.1479259748305173
-0.02305893195215689,0.15404584658067033
-0.02165252851552909,0.16539762527184193
-0.018704369375355454,0.17669000410692426
-0.015195186903276033,0.1838871312103666
-0.011794552094574156,0.18706735509987155
-0.009350675082069713,0.1844368092577737
-0.008304609776357413,0.17513157674770097
-0.008465173546720803,0.16096764842538175
-0.009381296751753292,0.1443225678780326
-0.010407597198047342,0.12797612860645793
-0.011412224160765422,0.11370696852200267
-0.012530139481607024,0.10189098186076945
-0.0138177325030152,0.09138992085809067
-0.015462983981891068,0.08059719014428218
-0.01723472812837337,0.07052496941574189
-0.01879543641960229,0.06297165045919614
-0.020288662963777983,0.05917289784548825
-0.021831884967057447,0.06166644131283346
-0.023479271514386953,0.07331522120326081
-0.025358842136073746,0.09380753782071564
-0.027312499670150422,0.11595293456797223
-0.02911679306754743,0.13253222294549066
-0.030801835333026967,0.14511516116401013
-0.03236678568998996,0.15572630460969114
-0.033739955939912206,0.16238506319475693
-0.0349201737976848,0.1657102075006667
-0.03585519234518562,0.16705261946873326
-0.036512920441525334,0.16651056086164193
-0.03703584520409449,0.1654877445189468
-0.03757665626858986,0.16552559058932248
-0.038180546152808185,0.16749632674938283
-0.038873988804858636,0.17089815344984863
-0.03961740071452712,0.17142565883234545
-0.040309466543295015,0.1667647891437949
-0.04091687635016865,0.16447491985102117
-0.041376308729060104,0.1702315946588429
-0.04151460420866961,0.1762147472702457
-0.04117562958504043,0.17676455600921603
-0.040258211798942546,0.17811932578099476
-0.038725257692276055,0.18362922659901854
-0.03671275984262234,0.1894099354533967
-0.0344125246331873,0.1943209957361556
-0.03188166378983053,0.1999964459579162
-0.02915550022312633,0.2065686931709988
-0.026255785885130316,0.21454949994220707
-0.023175950542228246,0.2250895072819034
-0.02006020347115598,0.2377952372707583
-0.017100445502536255,0.2514215402501184
-0.014420457321652891,0.2642080293766242
-0.012167228141750109,0.2742096503405674
-0.01044579110898913,0.28128784201529267
-0.009309527540344763,0.2869146446300425
-0.00883867885413739,0.2942500493096746
-0.009088445136538049,0.30557412654924776
-0.010080903129028965,0.3168603663458355
-0.011828329389165329,0.32262425895818436
-0.014303966165767535,0.3208368349586207
-0.017396363989060044,0.31121226457622164
-0.020845502896694193,0.2999155724560781
-0.02422540915100813,0.29317943381158545
-0.026913727170625602,0.284478103314629
-0.0282663187144491,0.2693281870729421
-0.027919394521384606,0.25797269816634144
-0.02576420111948249,0.2564922460666651
-0.02203875786968262,0.2572417963171743
-0.01711506444143471,0.25550672070132435
-0.01092298743735043,0.2552106044744125
-0.00373333621093732,0.25789540573235215
0.0030012264544932873,0.26233710103697977
0.007933412780260598,0.26916465336611856
0.01076264338505857,0.2773317514402721
0.011367560735264107,0.283849754794327
0.009809679807538937,0.28604503366321754
0.006672010718462748,0.28149606477631484
0.0023976663665844695,0.26999786105689166
-0.0025996615160614844,0.25391870669577427
-0.0077340372138695055,0.23799409155241255
-0.012433758552757804,0.2277113739066312
-0.015849346304571046,0.2250492117988555
-0.017301880158760646,0.2294165158318715
-0.016943643679341175,0.2376510468451471
-0.015152928383974579,0.2445210128017248
-0.012156778261281479,0.24774230203790712
-0.008498641586639853,0.24737609745586028
-0.004934146202218361,0.24644559827894383
-0.002173824095337877,0.24876663906438837
-0.0009845389341001016,0.25135882456828795
-0.0017842383576161746,0.2507386152802398
-0.00408441208923913,0.2485472831715465
-0.007145702109531657,0.24517154388537538
-0.010706784416231413,0.24010501178110874
-0.0144409270285592,0.23416793134299405
-0.017968351688713576,0.2265876903314048
-0.021060640357102974,0.2162531300026812
-0.0230982393618498,0.20367620710172296
-0.023611304848279217,0.1897624865717836
-0.02297138827602094,0.17632516353764183
-0.021667252764901484,0.16365336366992236
-0.019945045686064235,0.14561408256835065
-0.01817394576704476,0.1183633632709831
-0.01657110224177803,0.09070063003034066
-0.015238860848996219,0.07083603674804709
-0.014625946971398051,0.05612665778824608
-0.015028208545439693,0.04470549654071481
-0.016173392409863787,0.03718967627642783
-0.017710098818124093,0.03138327621882248
-0.01936040379919341,0.027754922659664883
-0.0207196455700494,0.027778502043833364
-0.021466638962698525,0.02884490183251834
-0.021372696086498742,0.028837526416457593
-0.02011207060017353,0.027806254070406853
-0.017621027072152354,0.025829437826374292
-0.0144225424085969,0.024723214376612825
-0.011203454295957918,0.026547011320019014
-0.008484190313156618,0.02982144167713033
-0.006854551172092372,0.030409975148510647
-0.006856526337974222,0.020738525964344612
-0.008906443473631245,-0.001360079216517472
-0.013563644083857481,-0.017042839628488023
-0.02113373717982305,-0.0109702040645658
-0.031239081828658512,0.0001367967232423402
-0.04286648857791725,-0.0003048286538653308
-0.05406956742515197,-0.009044774834168382
-0.061596136478868795,-0.024826493511667398
-0.06068416732663684,-0.04135732200032108
-0.04894362157984302,-0.048135741926562815
-0.03193791317205035,-0.05456011222096644
-0.015855831609225275,-0.06979166358469245
0.0006203202719713618,-0.08276115730860635
0.0165266587097044,-0.08645740765396806
0.02344580841179996,-0.08539158285533206
0.018292853808278685,-0.08060173671263843
0.010413741008908836,-0.07210897774248379
0.008333459066009519,-0.06334239232700231
0.010474521136307464,-0.055774090020684744
0.01504133520778385,-0.04912721366414958
0.021236367357252667,-0.04256514969603104
0.02534112027889196,-0.03488323109914846
0.02774063664493934,-0.027685577674998244
0.030462036038737064,-0.023843382767022313
0.03218791353530317,-0.025970042564539785
0.03236890690763615,-0.036693912115084805
0.0303885389444271,-0.05546310137017694
0.025435468224624194,-0.07885978844553522
0.02028532005839936,-0.10152782036415058
0.018020231426374118,-0.11745774399132565
0.018771773067808726,-0.12489455292978287
0.02182859534116844,-0.12562950264464345
0.024559798360177104,-0.12485750765339865
0.023236752705686297,-0.12917193723334314
0.017244140585143113,-0.13890246381142782
0.008202230649688192,-0.1509334096764494
0.0005227809751327495,-0.16035212378299213
-0.0006922599943257979,-0.1606986564550604
0.003784163962042428,-0.1523553503831425
0.010979716358940865,-0.13933510164163582
0.018244518421685393,-0.12566277211685195
0.02145013740713606,-0.11697618847563714
0.0196902676684607,-0.11386046160200962
0.014755428645222533,-0.11364753732028218
0.009026928209824063,-0.11427973975501705
0.0057987678683566815,-0.11247380702341907
0.005199568365750191,-0.10824963532336236
0.0056891576320641495,-0.1039578769676516
0.006445961364138085,-0.10100423513545348
0.005918726371639347,-0.10139550868676356
0.004436626152368064,-0.10486047792039037
0.0034602184747443963,-0.10940157061755282
0.0031605886507296106,-0.11388825781406334
0.00392472466003429,-0.11679455637132118
0.005487390952349168,-0.1177970762853108
0.0067301553490072535,-0.11777356839901061
0.007181309796847487,-0.11715207091615702
0.0063326393474676486,-0.11657068423637287
0.003774315297531798,-0.11590000442424576
-0.0003618413127333871,-0.11419490447771265
-0.005877529133417106,-0.11061580209191417
-0.012433802244659998,-0.10430470332080055
-0.019708216577138307,-0.09541189846245483
-0.027369879030312367,-0.0849716601473011
-0.03481001734183746,-0.07434962478381242
-0.041389128625883294,-0.06563731756176955
-0.04647264112316798,-0.0610333139002687
-0.0495451428594819,-0.061405843893996365
-0.05061104199160456,-0.06455630713814664
-0.049913523999610444,-0.06795526394008229
-0.04761664892591786,-0.07252927472343437
-0.04416137325378864,-0.0786578364152592
-0.04031047204660922,-0.08374276968993948
-0.036862693036639596,-0.08603702006621289
-0.0346235303168391,-0.08507706238928997
-0.03419492331547954,-0.08059925605538189
-0.03556166826954609,-0.0742180174232339
-0.038411732734350265,-0.06819733394416702
-0.042555991037088445,-0.06292907461416751
-0.04743480738024107,-0.05797106074656799
-0.05193754265058477,-0.05174249204873421
-0.05510232759167635,-0.04359653567738163
-0.05656052246720793,-0.03901162554062644
-0.05679923516201836,-0.0425273290320099
-0.05793256430685591,-0.04965945820166714
-0.06183125400801081,-0.05577317060212886
-0.06719478241172162,-0.06072896459686217
-0.07027289459521137,-0.06323746025252036
-0.06421954674538151,-0.06319380376603875
-0.04616838013526315,-0.06307956205718081
-0.02996721099749809,-0.06442374348833592
-0.027662813676294338,-0.06758978260577818
-0.028205858306297227,-0.06986284844564647
-0.023126098264566224,-0.0686976062276099
-0.022462928340844603,-0.06799078768768703
-0.03015044310724145,-0.07083214165069487
-0.03807377570428417,-0.07361252232929398
-0.04189553936134229,-0.07398799646672823
-0.040932217844754426,-0.07373215079544694
-0.034199345902608896,-0.07355542553702113
-0.026608646946375908,-0.07357095881902469
-0.024635188957815073,-0.07492685291587686
-0.027232355192752217,-0.07768443609686959
-0.03204678409620118,-0.08102500089973018
-0.037827668373821975,-0.08404660312420453
-0.0413852197431359,-0.08559237554403086
-0.04267354653009668,-0.08538280858446727
-0.043528578488333754,-0.08375086951722512
-0.04422822172897904,-0.08114226192590171
-0.04561999661378945,-0.07831783625908814
-0.047243412456795184,-0.07541831017572341
-0.04753096826180848,-0.07229872798050575
-0.046292877832430385,-0.0691363040168179
-0.043370116675917454,-0.06603157879906218
-0.039011256193534544,-0.06349967275123097
-0.034490201576265554,-0.062305933192838
-0.031099308783187177,-0.06285081742518267
-0.030033323782673482,-0.06543608164813451
-0.03168120623062676,-0.07004400521199598
-0.03531419643428291,-0.0761195707555324
-0.03907244134298169,-0.08271328267677311
-0.040829882980100145,-0.08884058047369962
-0.04018964435850367,-0.09419284190340751
-0.03786507651049219,-0.09915363869204097
-0.03554191199359407,-0.10499329123817955
-0.03548525470330519,-0.11309818159863964
-0.03788585377818366,-0.12320359466810366
-0.04200561452836838,-0.13397449582117013
-0.04715531996043292,-0.1430701116888405
-0.05206735501928931,-0.14778384228689923
-0.05685350831185192,-0.1477398416439267
-0.06222730220041338,-0.14401455886850664
-0.06803920131283031,-0.13862468983152126
-0.07427223432322685,-0.13422496778553203
-0.08028245560365531,-0.13094262732952383
-0.08478137396308721,-0.127399615015089
-0.086876805294955,-0.12168725894581607
-0.08578707925124415,-0.11152111343535318
-0.08131357182221066,-0.09773842925749868
-0.07420306892816972,-0.08331994080420906
-0.06600441212612927,-0.07220659003780329
-0.058391485066940536,-0.06879404105554902
-0.05173785648036546,-0.07359505003120241
-0.04533589308699846,-0.08413880068804966
-0.03726374327053048,-0.09592292356350819
-0.02520874351415968,-0.10328244243974426
-0.009070815670149513,-0.10500294455938199
0.010040669367878589,-0.10266231035830502
0.030291850962338062,-0.09922958021036074
0.04923797743606101,-0.09906053200218345
0.06670304383278841,-0.10205148472618117
0.08368547158236452,-0.10598463922207275
0.10117666460437194,-0.10932846128607906
0.12061739796299703,-0.10961678526522224
0.14150122958598252,-0.10752396571616973
0.1620258914108114,-0.10554368699440848
0.18037562620683054,-0.10477639771645673
0.19442623721332103,-0.10675292296219488
0.20386852856837676,-0.11148018069779919
0.2098635386229582,-0.1172828448232523
0.2141238596372129,-0.1227507713488162
0.2187926373586987,-0.12623098034418834
0.22404328157850306,-0.12728877738205835
0.2286352995492585,-0.12686331911341028
0.23069026987889188,-0.12648062264958346
0.22756247442334473,-0.12801850510435425
0.2181961839698781,-0.13171872255533523
0.20216335421918785,-0.13680615575059366
0.1783615633452636,-0.1422853174480954
0.14635849169219342,-0.1466958628923575
0.10564921729508157,-0.15000786950184955
0.05629476327480509,-0.15288133773950743
0.0008150712119239355,-0.155477575180939
-0.057501471442948905,-0.15824779415034357
-0.11586894947767988,-0.16092114053403656
-0.17104264809881795,-0.16273614662949248
-0.22001748396455026,-0.16353547300744106
-0.26057301068993405,-0.16309477589647028
-0.29078015495315296,-0.16134492458239696
-0.3105561220397169,-0.15856681037857653
-0.32334286524997435,-0.1548268242098796
-0.33327459136835935,-0.1503072361241258
